270;2
269;4
269;6
269;8
269;10
269;12
269;14
270;16
269;18
269;20
268;22
268;24
267;26
267;28
267;30
267;32
268;34
268;36
268;38
267;40
266;43
267;45
266;47
266;49
267;51
267;53
268;55
268;57
269;59
269;61
269;63
269;65
270;67
270;69
272;71
273;73
274;75
276;77
277;79
276;81
277;83
278;86
278;88
279;90
281;92
282;94
284;96
285;98
285;100
285;102
286;104
287;106
287;108
288;110
290;112
291;114
293;116
293;118
294;120
294;122
295;124
295;126
295;128
295;130
296;132
298;134
299;136
300;138
300;140
299;142
300;144
300;146
300;148
300;150
301;152
303;154
303;156
304;158
304;160
302;162
302;164
303;166
302;168
302;171
303;173
304;175
304;177
304;179
304;181
304;183
303;185
303;187
303;189
304;191
305;193
306;195
306;197
306;199
305;201
305;203
305;205
305;207
305;209
305;211
306;214
306;216
306;218
306;220
305;222
304;224
304;226
304;228
303;230
304;232
304;234
305;236
305;238
304;240
304;242
303;244
302;246
302;248
302;250
302;252
303;254
303;256
303;258
303;260
302;262
302;264
301;266
301;268
301;270
301;272
302;274
303;276
303;278
303;280
302;282
302;284
301;286
301;288
302;290
302;292
303;294
304;296
304;299
304;301
304;303
304;305
305;307
305;309
305;311
307;313
308;315
308;317
308;319
308;321
307;323
307;325
306;327
306;329
306;331
306;333
306;335
305;337
305;339
304;342
303;344
302;346
301;348
302;350
301;352
301;354
302;356
301;358
300;360
298;362
298;364
296;366
296;368
296;370
295;372
296;374
296;376
296;378
294;380
292;382
291;384
289;386
287;388
285;390
284;392
284;394
284;396
285;398
286;400
289;402
295;404
300;406
308;408
317;410
326;412
337;414
348;416
360;418
371;420
381;422
389;424
396;427
400;429
403;431
402;433
399;435
394;437
389;439
383;441
376;443
370;445
365;447
359;449
354;451
350;453
346;455
343;457
339;459
336;461
331;463
327;465
324;467
321;470
317;472
316;474
313;476
311;478
308;480
305;482
302;484
299;486
297;488
295;490
293;492
292;494
291;496
289;498
287;500
285;502
284;504
282;506
280;508
279;510
279;512
278;514
278;516
277;518
277;520
275;522
274;524
273;526
272;528
271;530
271;532
271;534
272;536
271;538
271;540
270;542
269;544
269;546
268;548
268;550
268;552
269;555
269;557
269;559
269;561
268;563
268;565
267;567
267;569
267;571
267;573
268;575
268;577
268;579
268;581
267;583
266;585
266;587
266;589
266;591
267;593
267;595
267;598
267;600
267;602
266;604
265;606
265;608
264;610
265;612
265;614
265;616
265;618
265;620
264;622
264;624
263;626
262;628
262;630
262;632
263;634
264;636
265;638
264;640
264;642
264;644
265;646
264;648
265;650
266;652
267;654
269;656
271;658
271;660
272;662
272;664
273;666
274;668
274;670
276;672
277;674
279;676
281;678
281;680
281;683
282;685
282;687
283;689
284;691
285;693
287;695
288;697
289;699
289;701
290;703
290;705
290;707
291;709
291;711
292;713
294;715
295;717
295;719
296;721
295;723
296;726
296;728
297;730
297;732
298;734
299;736
300;738
301;740
301;742
300;744
300;746
300;748
301;750
301;752
302;754
303;756
304;758
303;760
304;762
303;764
303;766
303;768
303;770
303;772
304;774
304;776
305;778
305;780
305;782
305;784
304;786
304;788
304;790
304;792
304;794
305;796
306;798
306;800
305;802
304;804
303;806
303;808
303;811
303;813
304;815
304;817
305;819
305;821
303;823
303;825
302;827
302;829
302;831
302;833
303;835
303;837
303;839
302;841
302;843
301;845
301;847
300;849
300;851
301;854
301;856
302;858
302;860
301;862
300;864
300;866
300;868
300;870
300;872
301;874
301;876
302;878
302;880
302;882
301;884
301;886
302;888
302;890
302;892
304;894
304;896
305;898
306;900
306;902
306;904
306;906
306;908
306;910
306;912
306;914
307;916
307;918
306;920
305;922
304;924
303;926
301;928
301;930
301;932
302;934
303;936
304;939
303;941
301;943
299;945
298;947
297;949
296;951
297;953
298;955
299;957
300;959
298;961
296;963
294;965
293;967
292;969
291;971
290;973
290;975
290;977
288;979
286;982
283;984
282;986
282;988
284;990
289;992
295;994
304;996
313;998
323;1000
332;1002
340;1004
351;1006
362;1008
372;1010
382;1012
392;1014
400;1016
404;1018
405;1020
401;1022
399;1024
393;1026
387;1028
381;1030
375;1032
370;1034
367;1036
363;1038
358;1040
352;1042
346;1044
341;1046
336;1048
333;1050
329;1052
327;1054
325;1056
323;1058
320;1060
316;1062
312;1064
308;1067
304;1069
302;1071
300;1073
299;1075
299;1077
298;1079
295;1081
292;1083
289;1085
286;1087
284;1089
282;1091
282;1093
282;1095
282;1097
282;1099
280;1101
278;1103
275;1105
273;1107
272;1110
271;1112
271;1114
272;1116
274;1118
274;1120
272;1122
270;1124
269;1126
267;1128
266;1130
266;1132
267;1134
269;1136
270;1138
270;1140
269;1142
267;1144
266;1146
265;1148
265;1150
265;1152
266;1154
267;1156
269;1158
269;1160
268;1162
267;1164
266;1166
265;1168
264;1170
265;1172
265;1174
267;1176
269;1178
269;1180
268;1182
266;1184
264;1186
264;1188
263;1190
263;1192
264;1195
266;1197
267;1199
267;1201
265;1203
264;1205
262;1207
261;1209
261;1211
261;1213
262;1215
264;1217
265;1219
265;1221
263;1223
262;1225
261;1227
260;1229
261;1231
262;1233
264;1235
267;1238
268;1240
268;1242
267;1244
266;1246
267;1248
267;1250
268;1252
270;1254
272;1256
275;1258
276;1260
277;1262
276;1264
276;1266
275;1268
276;1270
277;1272
279;1274
282;1276
284;1278
285;1280
285;1282
284;1284
284;1286
283;1288
283;1290
284;1292
286;1294
289;1296
291;1298
292;1300
292;1302
291;1304
290;1306
290;1308
290;1310
291;1312
293;1314
295;1316
297;1318
298;1320
297;1323
296;1325
296;1327
295;1329
295;1331
296;1333
298;1335
300;1337
302;1339
302;1341
301;1343
300;1345
299;1347
298;1349
298;1351
299;1353
301;1355
303;1357
304;1359
305;1361
303;1363
302;1366
300;1368
300;1370
300;1372
301;1374
303;1376
305;1378
306;1380
305;1382
304;1384
302;1386
301;1388
301;1390
300;1392
301;1394
303;1396
305;1398
305;1400
304;1402
302;1404
301;1406
301;1408
300;1410
300;1412
300;1414
302;1416
303;1418
304;1420
303;1422
302;1424
300;1426
299;1428
298;1430
298;1432
299;1434
301;1436
302;1438
303;1440
302;1442
300;1444
298;1446
297;1448
296;1451
297;1453
298;1455
300;1457
302;1459
302;1461
301;1463
298;1465
297;1467
297;1469
297;1471
297;1473
298;1475
301;1477
302;1479
302;1481
301;1483
300;1485
299;1487
298;1489
299;1491
300;1494
302;1496
304;1498
306;1500
306;1502
305;1504
304;1506
303;1508
302;1510
302;1512
303;1514
305;1516
306;1518
307;1520
305;1522
304;1524
301;1526
300;1528
299;1530
299;1532
299;1534
300;1536
301;1538
302;1540
301;1542
299;1544
297;1546
296;1548
295;1550
295;1552
294;1554
296;1556
297;1558
298;1560
297;1562
294;1564
293;1566
291;1568
289;1570
288;1572
287;1574
287;1576
287;1579
286;1581
285;1583
283;1585
284;1587
285;1589
289;1591
295;1593
303;1595
313;1597
323;1599
333;1601
343;1603
352;1605
362;1607
372;1609
381;1611
389;1613
396;1615
401;1617
402;1619
399;1622
394;1624
388;1626
381;1628
375;1630
369;1632
364;1634
360;1636
357;1638
353;1640
347;1642
342;1644
336;1646
332;1648
329;1650
325;1652
322;1654
321;1656
319;1658
317;1660
314;1662
312;1664
308;1666
304;1668
301;1670
298;1672
297;1674
296;1676
296;1678
295;1680
293;1682
290;1684
286;1686
284;1688
282;1690
281;1692
280;1694
281;1696
281;1698
281;1700
279;1702
277;1704
275;1707
273;1709
272;1711
271;1713
272;1715
273;1717
274;1719
275;1721
273;1723
271;1725
269;1727
268;1729
268;1731
268;1733
269;1735
271;1737
272;1739
272;1741
271;1743
269;1745
269;1747
268;1750
268;1752
268;1754
269;1756
271;1758
272;1760
272;1762
271;1764
270;1766
269;1768
268;1770
268;1772
268;1774
270;1776
272;1778
273;1780
272;1782
271;1784
270;1786
269;1788
268;1790
267;1792
267;1794
268;1796
270;1798
271;1800
271;1802
270;1804
268;1806
267;1808
266;1810
265;1812
266;1814
267;1816
269;1818
270;1820
270;1822
268;1824
267;1826
266;1828
266;1830
266;1832
268;1835
269;1837
272;1839
273;1841
273;1843
272;1845
272;1847
271;1849
272;1851
273;1853
275;1855
278;1857
280;1859
282;1861
281;1863
280;1865
280;1867
280;1869
280;1871
281;1873
283;1875
286;1878
288;1880
289;1882
289;1884
288;1886
287;1888
287;1890
287;1892
288;1894
290;1896
293;1898
294;1900
295;1902
294;1904
293;1906
293;1908
292;1910
293;1912
293;1914
296;1916
298;1918
299;1920
300;1922
300;1924
298;1926
297;1928
297;1930
297;1932
297;1934
299;1936
302;1938
303;1940
303;1942
303;1944
302;1946
300;1948
300;1950
300;1952
301;1954
303;1956
305;1958
306;1960
306;1963
304;1965
303;1967
302;1969
301;1971
301;1973
302;1975
304;1977
306;1979
307;1981
306;1983
304;1985
303;1987
302;1989
302;1991
301;1993
302;1995
304;1997
306;1999
306;2001
305;2003
304;2006
302;2008
301;2010
300;2012
301;2014
302;2016
303;2018
305;2020
305;2022
303;2024
302;2026
301;2028
300;2030
298;2032
299;2034
301;2036
303;2038
304;2040
304;2042
302;2044
301;2046
301;2048
300;2050
299;2052
299;2054
301;2056
304;2058
305;2060
306;2062
306;2064
304;2066
303;2068
303;2070
303;2072
304;2074
306;2076
308;2078
309;2080
309;2082
308;2084
306;2086
304;2088
303;2091
302;2093
303;2095
304;2097
306;2099
306;2101
306;2103
303;2105
301;2107
300;2109
299;2111
298;2113
299;2115
300;2117
302;2119
302;2121
301;2123
299;2125
297;2127
296;2129
295;2131
294;2134
295;2136
296;2138
297;2140
297;2142
294;2144
291;2146
288;2148
285;2150
283;2152
283;2154
285;2156
289;2158
293;2160
298;2162
302;2164
307;2166
313;2168
321;2170
330;2172
340;2174
346;2176
359;2178
371;2180
381;2182
388;2184
393;2186
396;2188
396;2190
393;2192
390;2194
387;2196
384;2198
380;2200
374;2202
368;2204
361;2206
354;2208
349;2210
344;2212
340;2214
337;2216
335;2219
333;2221
330;2223
325;2225
321;2227
317;2229
313;2231
310;2233
308;2235
307;2237
307;2239
306;2241
303;2243
299;2245
296;2247
293;2249
291;2251
289;2253
288;2255
289;2257
288;2259
288;2262
286;2264
283;2266
281;2268
279;2270
278;2272
276;2274
277;2276
278;2278
279;2280
279;2282
276;2284
275;2286
273;2288
272;2290
271;2292
271;2294
272;2296
273;2298
275;2300
274;2302
274;2304
272;2306
271;2308
270;2310
269;2312
269;2314
270;2316
272;2318
274;2320
275;2322
273;2324
272;2326
271;2328
270;2330
270;2332
270;2334
271;2336
273;2338
275;2340
275;2342
274;2344
273;2347
271;2349
270;2351
270;2353
271;2355
272;2357
274;2359
275;2361
275;2363
273;2365
272;2367
271;2369
269;2371
269;2373
270;2375
271;2377
273;2379
274;2381
273;2383
272;2385
270;2387
269;2390
268;2392
269;2394
269;2396
271;2398
273;2400
275;2402
274;2404
273;2406
272;2408
271;2410
272;2412
272;2414
274;2416
277;2418
279;2420
280;2422
280;2424
279;2426
279;2428
279;2430
278;2432
279;2434
281;2436
283;2438
286;2440
287;2442
287;2444
287;2446
286;2448
285;2450
285;2452
286;2454
287;2456
290;2458
292;2460
293;2462
293;2464
292;2466
291;2468
290;2470
290;2472
291;2475
292;2477
295;2479
297;2481
297;2483
296;2485
295;2487
295;2489
294;2491
294;2493
295;2495
297;2497
299;2499
301;2501
301;2503
300;2505
299;2507
298;2509
297;2511
297;2513
298;2515
300;2518
303;2520
304;2522
304;2524
302;2526
301;2528
300;2530
300;2532
300;2534
301;2536
303;2538
305;2540
306;2542
305;2544
303;2546
302;2548
301;2550
300;2552
301;2554
302;2556
304;2558
305;2560
306;2562
305;2564
304;2566
302;2568
301;2570
300;2572
300;2574
301;2576
303;2578
304;2580
306;2582
305;2584
303;2586
301;2588
300;2590
300;2592
299;2594
301;2596
303;2598
304;2600
305;2603
304;2605
303;2607
301;2609
300;2611
301;2613
301;2615
303;2617
305;2619
307;2621
308;2623
307;2625
306;2627
305;2629
304;2631
304;2633
304;2635
306;2637
308;2639
309;2641
308;2643
306;2646
305;2648
303;2650
302;2652
302;2654
301;2656
303;2658
304;2660
305;2662
304;2664
302;2666
300;2668
299;2670
298;2672
297;2674
298;2676
300;2678
301;2680
302;2682
300;2684
298;2686
297;2688
296;2690
294;2692
293;2694
292;2696
292;2698
292;2700
292;2702
290;2704
287;2706
286;2708
286;2710
287;2712
291;2714
297;2716
304;2718
313;2720
322;2722
330;2724
337;2726
346;2728
356;2731
366;2733
375;2735
384;2737
392;2739
397;2741
399;2743
396;2745
391;2747
386;2749
381;2751
375;2753
369;2755
366;2757
362;2759
358;2761
353;2763
348;2765
342;2767
336;2769
332;2771
328;2774
326;2776
324;2778
323;2780
321;2782
318;2784
314;2786
310;2788
307;2790
304;2792
301;2794
300;2796
300;2798
300;2800
299;2802
296;2804
293;2806
290;2808
288;2810
285;2812
285;2814
284;2816
284;2818
285;2820
286;2822
284;2824
282;2826
280;2828
278;2830
276;2832
275;2834
275;2836
277;2838
278;2840
278;2842
277;2844
275;2846
273;2848
272;2850
271;2852
271;2854
272;2856
274;2859
275;2861
276;2863
275;2865
273;2867
272;2869
271;2871
270;2873
271;2875
271;2877
274;2879
275;2881
276;2883
275;2885
273;2887
272;2889
272;2891
271;2893
271;2895
273;2897
275;2899
277;2902
277;2904
275;2906
274;2908
272;2910
272;2912
271;2914
272;2916
274;2918
276;2920
276;2922
276;2924
275;2926
273;2928
272;2930
271;2932
271;2934
272;2936
273;2938
276;2940
276;2942
276;2944
275;2946
274;2948
272;2950
272;2952
272;2954
272;2956
275;2958
278;2960
279;2962
279;2964
278;2966
277;2968
277;2970
277;2972
278;2974
279;2976
281;2978
284;2980
286;2982
286;2984
285;2987
285;2989
284;2991
284;2993
285;2995
286;2997
289;2999
291;3001
292;3003
292;3005
291;3007
290;3009
289;3011
289;3013
289;3015
291;3017
294;3019
296;3021
297;3023
296;3025
295;3027
294;3030
293;3032
293;3034
294;3036
295;3038
298;3040
300;3042
300;3044
299;3046
298;3048
297;3050
297;3052
296;3054
297;3056
299;3058
302;3060
304;3062
303;3064
302;3066
300;3068
300;3070
299;3072
299;3074
299;3076
301;3078
304;3080
305;3082
305;3084
304;3086
303;3088
301;3090
301;3092
300;3094
301;3096
303;3098
305;3100
306;3102
307;3104
305;3106
303;3108
302;3110
302;3112
301;3115
302;3117
304;3119
306;3121
307;3123
307;3125
305;3127
303;3129
302;3131
302;3133
302;3135
302;3137
305;3139
307;3141
308;3143
307;3145
306;3147
305;3149
304;3151
304;3153
304;3155
306;3158
309;3160
311;3162
312;3164
311;3166
310;3168
308;3170
307;3172
307;3174
307;3176
308;3178
311;3180
312;3182
311;3184
309;3186
307;3188
305;3190
304;3192
304;3194
304;3196
305;3198
305;3200
307;3202
307;3204
306;3206
303;3208
302;3210
300;3212
299;3214
299;3216
300;3218
302;3220
303;3222
302;3224
300;3226
298;3228
296;3230
294;3232
293;3234
291;3236
291;3238
292;3240
291;3243
290;3245
288;3247
287;3249
287;3251
289;3253
293;3255
299;3257
308;3259
318;3261
327;3263
336;3265
344;3267
353;3269
363;3271
372;3273
380;3275
388;3277
395;3279
400;3281
401;3283
398;3286
392;3288
386;3290
380;3292
374;3294
369;3296
365;3298
361;3300
358;3302
354;3304
348;3306
342;3308
338;3310
333;3312
330;3314
327;3316
325;3318
324;3320
322;3322
319;3324
316;3326
313;3328
309;3330
306;3332
304;3334
302;3336
300;3338
300;3340
300;3342
299;3344
296;3346
293;3348
290;3350
287;3352
285;3354
285;3356
285;3358
286;3360
286;3362
285;3364
283;3366
281;3368
278;3371
277;3373
276;3375
276;3377
277;3379
279;3381
279;3383
279;3385
276;3387
275;3389
273;3391
272;3393
272;3395
272;3397
274;3399
275;3401
277;3403
275;3405
274;3407
273;3409
271;3411
270;3414
271;3416
272;3418
274;3420
276;3422
277;3424
276;3426
274;3428
273;3430
272;3432
272;3434
272;3436
273;3438
275;3440
277;3442
277;3444
277;3446
275;3448
273;3450
272;3452
272;3454
271;3456
272;3458
274;3460
276;3462
277;3464
276;3466
274;3468
273;3470
272;3472
271;3474
271;3476
272;3478
275;3480
276;3482
276;3484
275;3486
274;3488
272;3490
272;3492
271;3494
272;3496
274;3499
277;3501
278;3503
279;3505
278;3507
277;3509
277;3511
276;3513
277;3515
278;3517
280;3519
283;3521
285;3523
285;3525
284;3527
284;3529
283;3531
283;3533
284;3535
285;3537
287;3539
289;3542
291;3544
291;3546
289;3548
288;3550
288;3552
288;3554
288;3556
290;3558
292;3560
294;3562
296;3564
295;3566
293;3568
292;3570
292;3572
291;3574
292;3576
294;3578
297;3580
299;3582
299;3584
299;3586
297;3588
296;3590
295;3592
295;3594
295;3596
296;3598
299;3600
301;3602
302;3604
301;3606
300;3608
298;3610
298;3612
298;3614
298;3616
300;3618
302;3620
304;3622
305;3624
303;3627
302;3629
301;3631
300;3633
300;3635
300;3637
302;3639
304;3641
305;3643
306;3645
304;3647
302;3649
302;3651
300;3653
300;3655
300;3657
302;3659
305;3661
305;3663
305;3665
303;3667
302;3670
300;3672
299;3674
299;3676
300;3678
302;3680
304;3682
306;3684
305;3686
303;3688
302;3690
301;3692
301;3694
301;3696
302;3698
305;3700
307;3702
308;3704
307;3706
306;3708
305;3710
305;3712
305;3714
304;3716
305;3718
308;3720
310;3722
311;3724
310;3726
308;3728
306;3730
305;3732
304;3734
304;3736
304;3738
306;3740
307;3742
307;3744
306;3746
303;3748
302;3750
300;3752
299;3755
299;3757
299;3759
301;3761
303;3763
303;3765
301;3767
299;3769
297;3771
296;3773
295;3775
295;3777
296;3779
298;3781
298;3783
297;3785
293;3787
290;3789
287;3791
285;3793
283;3795
283;3798
287;3800
290;3802
295;3804
299;3806
303;3808
309;3810
316;3812
324;3814
334;3816
344;3818
357;3820
370;3822
380;3824
388;3826
393;3828
397;3830
398;3832
398;3834
396;3836
392;3838
391;3840
387;3842
383;3844
377;3846
370;3848
363;3850
357;3852
351;3854
347;3856
343;3858
341;3860
340;3862
337;3864
333;3866
328;3868
323;3870
319;3872
315;3874
313;3876
311;3878
310;3880
310;3883
308;3885
304;3887
300;3889
297;3891
294;3893
292;3895
290;3897
289;3899
290;3901
291;3903
289;3905
286;3907
283;3909
281;3911
279;3913
277;3915
277;3917
278;3919
279;3921
279;3923
278;3926
276;3928
274;3930
272;3932
271;3934
270;3936
270;3938
271;3940
274;3942
274;3944
274;3946
272;3948
270;3950
269;3952
268;3954
268;3956
268;3958
271;3960
272;3962
273;3964
272;3966
271;3968
270;3970
269;3972
268;3974
268;3976
268;3978
270;3980
272;3982
273;3984
273;3986
271;3988
270;3990
268;3992
268;3994
268;3996
268;3998
271;4000
272;4002
273;4004
273;4006
270;4008
269;4011
268;4013
267;4015
267;4017
268;4019
270;4021
272;4023
272;4025
271;4027
269;4029
268;4031
267;4033
266;4035
266;4037
268;4039
270;4041
272;4043
272;4045
271;4047
270;4049
269;4051
269;4054
269;4056
270;4058
272;4060
275;4062
277;4064
278;4066
277;4068
276;4070
276;4072
276;4074
277;4076
278;4078
281;4080
284;4082
285;4084
286;4086
285;4088
284;4090
284;4092
284;4094
284;4096
284;4098
287;4100
290;4102
291;4104
292;4106
291;4108
290;4110
290;4112
289;4114
290;4116
291;4118
293;4120
295;4122
297;4124
297;4126
296;4128
295;4130
294;4132
294;4134
294;4136
295;4139
298;4141
300;4143
301;4145
301;4147
300;4149
298;4151
298;4153
297;4155
297;4157
299;4159
302;4161
303;4163
304;4165
303;4167
302;4169
301;4171
300;4173
300;4175
300;4177
302;4179
304;4182
306;4184
306;4186
305;4188
304;4190
302;4192
302;4194
301;4196
302;4198
303;4200
306;4202
307;4204
307;4206
305;4208
304;4210
303;4212
302;4214
301;4216
302;4218
304;4220
305;4222
307;4224
306;4226
305;4228
303;4230
302;4232
301;4234
301;4236
301;4238
303;4240
304;4242
305;4244
305;4246
304;4248
302;4250
301;4252
300;4254
299;4256
300;4258
303;4260
304;4262
306;4264
305;4267
304;4269
302;4271
301;4273
301;4275
301;4277
302;4279
305;4281
307;4283
308;4285
308;4287
307;4289
306;4291
305;4293
305;4295
305;4297
306;4299
309;4301
310;4303
310;4305
310;4307
308;4310
306;4312
304;4314
304;4316
303;4318
304;4320
306;4322
307;4324
307;4326
305;4328
303;4330
301;4332
299;4334
299;4336
298;4338
300;4340
302;4342
303;4344
302;4346
300;4348
298;4350
297;4352
296;4354
295;4356
295;4358
295;4360
296;4362
297;4364
295;4366
293;4368
289;4370
286;4372
284;4374
284;4376
285;4378
289;4380
294;4382
300;4384
306;4386
312;4388
319;4390
326;4392
335;4395
345;4397
356;4399
369;4401
380;4403
390;4405
396;4407
400;4409
401;4411
400;4413
396;4415
392;4417
388;4419
384;4421
380;4423
375;4425
369;4427
362;4429
356;4431
351;4433
346;4435
341;4438
339;4440
337;4442
335;4444
332;4446
328;4448
323;4450
319;4452
315;4454
311;4456
309;4458
308;4460
308;4462
307;4464
304;4466
301;4468
297;4470
294;4472
291;4474
289;4476
288;4478
288;4480
288;4482
288;4484
288;4486
285;4488
283;4490
280;4492
278;4494
276;4496
275;4498
275;4500
277;4502
278;4504
278;4506
275;4508
273;4510
271;4512
270;4514
270;4516
269;4518
270;4520
272;4523
273;4525
273;4527
272;4529
270;4531
268;4533
267;4535
267;4537
268;4539
270;4541
272;4543
273;4545
273;4547
271;4549
270;4551
268;4553
268;4555
268;4557
268;4559
271;4561
272;4563
273;4566
272;4568
271;4570
269;4572
269;4574
268;4576
268;4578
270;4580
271;4582
273;4584
273;4586
272;4588
270;4590
269;4592
268;4594
267;4596
267;4598
268;4600
270;4602
272;4604
273;4606
272;4608
270;4610
268;4612
267;4614
266;4616
267;4618
268;4620
270;4622
272;4624
273;4626
272;4628
271;4630
270;4632
269;4634
269;4636
270;4638
272;4640
274;4642
277;4644
278;4646
278;4648
277;4651
277;4653
277;4655
277;4657
278;4659
281;4661
284;4663
286;4665
287;4667
286;4669
285;4671
284;4673
284;4675
285;4677
286;4679
288;4681
291;4683
293;4685
293;4687
292;4689
291;4691
290;4694
289;4696
290;4698
291;4700
294;4702
296;4704
297;4706
297;4708
296;4710
295;4712
294;4714
294;4716
295;4718
296;4720
299;4722
301;4724
302;4726
301;4728
300;4730
298;4732
298;4734
298;4736
298;4738
299;4740
301;4742
303;4744
305;4746
304;4748
303;4750
301;4752
301;4754
300;4756
300;4758
302;4760
304;4762
306;4764
306;4766
306;4768
304;4770
303;4772
302;4774
301;4776
302;4779
303;4781
305;4783
307;4785
307;4787
306;4789
304;4791
303;4793
302;4795
301;4797
302;4799
303;4801
306;4803
307;4805
307;4807
305;4809
304;4811
302;4813
302;4815
301;4817
301;4819
303;4822
305;4824
306;4826
305;4828
304;4830
302;4832
301;4834
300;4836
300;4838
300;4840
302;4842
304;4844
305;4846
304;4848
303;4850
301;4852
299;4854
299;4856
299;4858
300;4860
302;4862
303;4864
304;4866
303;4868
302;4870
300;4872
299;4874
298;4876
297;4878
298;4880
300;4882
302;4884
303;4886
303;4888
301;4890
300;4892
299;4894
298;4896
299;4898
299;4900
302;4902
304;4904
304;4907
303;4909
302;4911
301;4913
301;4915
301;4917
302;4919
303;4921
306;4923
308;4925
308;4927
307;4929
306;4931
305;4933
304;4935
304;4937
304;4939
306;4941
308;4943
309;4945
309;4947
306;4950
304;4952
303;4954
301;4956
301;4958
301;4960
302;4962
304;4964
304;4966
304;4968
301;4970
299;4972
298;4974
297;4976
296;4978
297;4980
299;4982
300;4984
300;4986
300;4988
297;4990
296;4992
295;4994
293;4996
292;4998
292;5000
292;5002
293;5004
292;5006
290;5008
287;5010
285;5012
284;5014
284;5016
286;5018
290;5020
297;5022
306;5024
314;5026
322;5028
329;5030
337;5032
347;5035
357;5037
368;5039
378;5041
388;5043
396;5045
401;5047
401;5049
399;5051
394;5053
389;5055
383;5057
378;5059
374;5061
370;5063
366;5065
361;5067
355;5069
349;5071
344;5073
339;5075
335;5078
332;5080
330;5082
328;5084
327;5086
323;5088
319;5090
314;5092
311;5094
307;5096
305;5098
303;5100
302;5102
302;5104
301;5106
298;5108
294;5110
292;5112
288;5114
286;5116
285;5118
284;5120
284;5122
285;5124
285;5126
283;5128
281;5130
278;5132
276;5134
275;5136
274;5138
273;5140
274;5142
276;5144
277;5146
276;5148
273;5150
272;5152
270;5154
269;5156
268;5158
269;5160
271;5163
272;5165
273;5167
272;5169
270;5171
269;5173
268;5175
267;5177
267;5179
268;5181
270;5183
272;5185
273;5187
272;5189
270;5191
268;5193
268;5195
268;5197
268;5199
269;5201
271;5203
272;5206
273;5208
271;5210
270;5212
269;5214
268;5216
268;5218
268;5220
269;5222
271;5224
273;5226
273;5228
271;5230
269;5232
268;5234
267;5236
267;5238
267;5240
268;5242
271;5244
272;5246
271;5248
270;5250
269;5252
267;5254
266;5256
266;5258
266;5260
267;5262
270;5264
271;5266
272;5268
270;5270
270;5272
269;5274
268;5276
269;5278
270;5280
272;5282
275;5284
277;5286
277;5288
277;5291
276;5293
276;5295
276;5297
277;5299
279;5301
281;5303
283;5305
286;5307
286;5309
285;5311
284;5313
284;5315
284;5317
285;5319
287;5321
290;5323
292;5325
293;5327
292;5329
291;5331
290;5334
290;5336
291;5338
291;5340
293;5342
296;5344
298;5346
298;5348
297;5350
296;5352
296;5354
295;5356
295;5358
295;5360
298;5362
300;5364
302;5366
302;5368
301;5370
300;5372
298;5374
298;5376
298;5378
299;5380
300;5382
302;5384
304;5386
305;5388
303;5390
302;5392
301;5394
300;5396
300;5398
300;5400
302;5402
305;5404
306;5406
306;5408
304;5410
303;5412
302;5414
301;5416
301;5419
302;5421
303;5423
305;5425
307;5427
306;5429
304;5431
303;5433
302;5435
301;5437
301;5439
302;5441
304;5443
305;5445
306;5447
305;5449
303;5451
302;5453
301;5455
300;5457
300;5459
301;5462
303;5464
305;5466
305;5468
304;5470
302;5472
300;5474
299;5476
299;5478
298;5480
300;5482
302;5484
303;5486
304;5488
302;5490
300;5492
299;5494
298;5496
298;5498
297;5500
299;5502
301;5504
302;5506
302;5508
301;5510
300;5512
298;5514
297;5516
297;5518
297;5520
298;5522
299;5524
301;5526
301;5528
300;5530
298;5532
296;5534
295;5536
296;5538
296;5540
297;5542
299;5544
300;5547
300;5549
299;5551
297;5553
296;5555
295;5557
295;5559
295;5561
297;5563
299;5565
300;5567
299;5569
298;5571
297;5573
296;5575
296;5577
295;5579
297;5581
299;5583
301;5585
302;5587
301;5590
299;5592
299;5594
298;5596
297;5598
298;5600
300;5602
302;5604
304;5606
305;5608
305;5610
303;5612
303;5614
302;5616
302;5618
302;5620
304;5622
306;5624
308;5626
308;5628
307;5630
305;5632
305;5634
303;5636
302;5638
301;5640
302;5642
304;5644
305;5646
305;5648
304;5650
302;5652
300;5654
298;5656
298;5658
297;5660
299;5662
300;5664
301;5666
301;5668
300;5670
298;5672
296;5675
295;5677
295;5679
294;5681
295;5683
296;5685
297;5687
295;5689
293;5691
289;5693
286;5695
284;5697
284;5699
283;5701
286;5703
290;5705
295;5707
299;5709
304;5711
310;5713
317;5715
325;5718
335;5720
346;5722
358;5724
371;5726
381;5728
388;5730
393;5732
397;5734
398;5736
397;5738
394;5740
391;5742
387;5744
383;5746
378;5748
372;5750
365;5752
359;5754
352;5756
348;5758
346;5760
342;5762
340;5764
338;5766
335;5768
331;5770
326;5772
322;5774
318;5776
314;5778
312;5780
310;5782
309;5784
309;5786
306;5788
303;5790
300;5792
296;5794
294;5796
291;5798
289;5800
289;5803
289;5805
289;5807
288;5809
285;5811
283;5813
280;5815
278;5817
277;5819
277;5821
277;5823
279;5825
279;5827
278;5829
276;5831
274;5833
272;5835
271;5837
270;5839
270;5841
272;5843
274;5846
274;5848
273;5850
272;5852
270;5854
268;5856
268;5858
268;5860
269;5862
270;5864
272;5866
273;5868
272;5870
270;5872
269;5874
268;5876
268;5878
267;5880
269;5882
271;5884
272;5886
273;5888
273;5890
271;5892
270;5894
269;5896
268;5898
268;5900
269;5902
270;5904
273;5906
274;5908
273;5910
271;5912
270;5914
268;5916
268;5918
268;5920
269;5922
270;5924
272;5926
272;5928
271;5931
269;5933
268;5935
267;5937
266;5939
267;5941
268;5943
270;5945
272;5947
271;5949
270;5951
269;5953
268;5955
267;5957
267;5959
268;5961
270;5963
272;5965
275;5967
275;5969
274;5971
273;5974
273;5976
274;5978
274;5980
275;5982
278;5984
280;5986
282;5988
283;5990
282;5992
282;5994
281;5996
282;5998
282;6000
284;6002
287;6004
289;6006
290;6008
290;6010
289;6012
289;6014
288;6016
289;6018
289;6020
290;6022
292;6024
295;6026
297;6028
297;6030
296;6032
295;6034
294;6036
294;6038
295;6040
295;6042
298;6044
300;6046
301;6048
301;6050
300;6052
298;6054
298;6056
298;6059
298;6061
300;6063
302;6065
304;6067
304;6069
304;6071
302;6073
301;6075
301;6077
300;6079
301;6081
303;6083
305;6085
306;6087
307;6089
305;6091
304;6093
303;6095
302;6097
302;6099
302;6102
304;6104
306;6106
307;6108
307;6110
305;6112
304;6114
303;6116
302;6118
302;6120
302;6122
304;6124
306;6126
307;6128
306;6130
304;6132
303;6134
302;6136
301;6138
301;6140
301;6142
303;6144
305;6146
306;6148
305;6150
304;6152
303;6154
301;6156
300;6158
300;6160
300;6162
302;6164
304;6166
304;6168
304;6170
302;6172
301;6174
299;6176
299;6178
299;6180
299;6182
301;6184
303;6187
303;6189
303;6191
301;6193
299;6195
298;6197
297;6199
297;6201
298;6203
300;6205
302;6207
302;6209
301;6211
299;6213
298;6215
297;6217
296;6219
296;6221
297;6223
299;6225
301;6227
300;6230
299;6232
297;6234
296;6236
295;6238
295;6240
295;6242
296;6244
298;6246
300;6248
299;6250
298;6252
296;6254
295;6256
294;6258
294;6260
295;6262
296;6264
298;6266
299;6268
298;6270
297;6272
296;6274
295;6276
294;6278
294;6280
294;6282
296;6284
297;6286
298;6288
298;6290
297;6292
295;6294
294;6296
294;6298
293;6300
294;6302
296;6304
298;6306
298;6308
298;6310
296;6312
294;6315
294;6317
293;6319
293;6321
294;6323
296;6325
298;6327
299;6329
298;6331
296;6333
295;6335
294;6337
293;6339
294;6341
295;6343
297;6345
299;6347
299;6349
299;6351
298;6353
297;6355
296;6358
296;6360
296;6362
297;6364
300;6366
301;6368
302;6370
302;6372
300;6374
300;6376
299;6378
300;6380
301;6382
303;6384
306;6386
308;6388
307;6390
306;6392
305;6394
304;6396
304;6398
304;6400
305;6402
305;6404
307;6406
308;6408
308;6410
307;6412
305;6414
303;6416
302;6418
302;6420
302;6422
303;6424
304;6426
305;6428
305;6430
302;6432
301;6434
300;6436
298;6438
298;6440
298;6443
300;6445
300;6447
301;6449
299;6451
298;6453
296;6455
293;6457
291;6459
290;6461
289;6463
289;6465
290;6467
291;6469
290;6471
290;6473
292;6475
295;6477
300;6479
306;6481
315;6483
326;6486
336;6488
346;6490
356;6492
365;6494
374;6496
382;6498
389;6500
395;6502
400;6504
403;6506
402;6508
398;6510
392;6512
385;6514
378;6516
372;6518
366;6520
361;6522
358;6524
355;6526
353;6528
349;6530
344;6532
339;6534
334;6536
330;6538
326;6540
323;6542
321;6544
320;6546
318;6548
316;6550
312;6552
308;6554
304;6556
301;6558
299;6560
297;6562
297;6564
296;6566
296;6568
293;6571
290;6573
288;6575
285;6577
283;6579
282;6581
280;6583
281;6585
282;6587
282;6589
280;6591
278;6593
276;6595
274;6597
273;6599
272;6601
272;6603
274;6605
275;6607
275;6609
274;6611
272;6614
271;6616
269;6618
269;6620
268;6622
270;6624
272;6626
272;6628
273;6630
271;6632
270;6634
269;6636
268;6638
268;6640
268;6642
270;6644
272;6646
273;6648
273;6650
272;6652
271;6654
270;6656
270;6658
269;6660
269;6662
271;6664
273;6666
274;6668
275;6670
274;6672
272;6674
271;6676
271;6678
270;6680
270;6682
272;6684
274;6686
275;6688
275;6690
274;6692
272;6694
271;6696
271;6699
270;6701
270;6703
272;6705
274;6707
274;6709
274;6711
273;6713
271;6715
270;6717
270;6719
269;6721
270;6723
272;6725
274;6727
275;6729
275;6731
274;6733
273;6735
272;6737
272;6739
273;6742
275;6744
277;6746
279;6748
281;6750
281;6752
280;6754
279;6756
279;6758
279;6760
280;6762
282;6764
285;6766
287;6768
288;6770
288;6772
287;6774
287;6776
287;6778
287;6780
288;6782
289;6784
291;6786
293;6788
295;6790
295;6792
294;6794
293;6796
292;6798
293;6800
293;6802
294;6804
297;6806
299;6808
299;6810
300;6812
298;6814
297;6816
297;6818
297;6820
297;6822
299;6824
301;6827
303;6829
303;6831
302;6833
301;6835
300;6837
300;6839
300;6841
300;6843
302;6845
304;6847
306;6849
305;6851
304;6853
303;6855
302;6857
301;6859
302;6861
302;6863
304;6865
306;6867
307;6870
306;6872
305;6874
303;6876
302;6878
302;6880
302;6882
303;6884
304;6886
306;6888
307;6890
306;6892
304;6894
303;6896
302;6898
301;6900
301;6902
302;6904
304;6906
306;6908
306;6910
305;6912
303;6914
302;6916
301;6918
300;6920
300;6922
300;6924
303;6926
303;6928
304;6930
303;6932
301;6934
300;6936
299;6938
298;6940
298;6942
299;6944
301;6946
302;6948
303;6950
302;6952
300;6955
299;6957
298;6959
297;6961
297;6963
299;6965
301;6967
302;6969
301;6971
300;6973
299;6975
297;6977
296;6979
296;6981
296;6983
298;6985
300;6987
301;6989
301;6991
299;6993
297;6995
296;6998
296;7000
296;7002
296;7004
298;7006
300;7008
301;7010
300;7012
299;7014
297;7016
296;7018
296;7020
295;7022
296;7024
298;7026
300;7028
300;7030
300;7032
299;7034
297;7036
296;7038
296;7040
296;7042
296;7044
298;7046
300;7048
301;7050
300;7052
298;7054
297;7056
296;7058
296;7060
296;7062
296;7064
298;7066
299;7068
300;7070
299;7072
298;7074
296;7076
295;7078
295;7080
296;7083
297;7085
299;7087
301;7089
301;7091
300;7093
299;7095
297;7097
297;7099
297;7101
297;7103
299;7105
301;7107
304;7109
304;7111
303;7113
303;7115
302;7117
302;7119
302;7121
302;7123
304;7126
306;7128
307;7130
307;7132
306;7134
304;7136
303;7138
302;7140
302;7142
302;7144
303;7146
305;7148
305;7150
304;7152
302;7154
300;7156
299;7158
298;7160
297;7162
298;7164
300;7166
300;7168
301;7170
301;7172
299;7174
297;7176
295;7178
294;7180
294;7182
294;7184
295;7186
296;7188
296;7190
295;7192
292;7194
288;7196
286;7198
284;7200
283;7202
285;7204
288;7206
292;7208
297;7211
302;7213
307;7215
313;7217
321;7219
329;7221
339;7223
351;7225
363;7227
375;7229
384;7231
391;7233
396;7235
398;7237
398;7239
397;7241
393;7243
389;7245
386;7247
381;7249
376;7251
369;7254
362;7256
356;7258
351;7260
346;7262
342;7264
340;7266
338;7268
336;7270
332;7272
327;7274
323;7276
319;7278
315;7280
312;7282
310;7284
310;7286
308;7288
307;7290
304;7292
300;7294
298;7296
296;7298
293;7300
291;7302
289;7304
289;7306
289;7308
289;7310
288;7312
285;7314
282;7316
280;7318
278;7320
277;7322
277;7324
278;7326
279;7328
279;7330
278;7332
275;7334
274;7336
272;7339
271;7341
271;7343
271;7345
273;7347
274;7349
275;7351
273;7353
271;7355
270;7357
269;7359
269;7361
269;7363
270;7365
272;7367
274;7369
274;7371
273;7373
271;7375
270;7377
269;7379
269;7382
269;7384
271;7386
273;7388
274;7390
275;7392
274;7394
272;7396
271;7398
271;7400
270;7402
271;7404
272;7406
275;7408
276;7410
275;7412
274;7414
272;7416
271;7418
271;7420
270;7422
270;7424
272;7426
274;7428
275;7430
275;7432
274;7434
272;7436
271;7438
270;7440
270;7442
270;7444
272;7446
273;7448
274;7450
274;7452
273;7454
271;7456
270;7458
270;7460
270;7462
271;7464
272;7467
275;7469
277;7471
277;7473
275;7475
274;7477
275;7479
274;7481
275;7483
276;7485
279;7487
282;7489
283;7491
283;7493
282;7495
281;7497
281;7499
281;7501
282;7503
284;7505
287;7507
288;7510
290;7512
289;7514
288;7516
288;7518
288;7520
288;7522
288;7524
290;7526
293;7528
295;7530
295;7532
294;7534
293;7536
293;7538
292;7540
292;7542
293;7544
295;7546
297;7548
299;7550
299;7552
298;7554
297;7556
296;7558
296;7560
296;7562
296;7564
297;7566
300;7568
302;7570
302;7572
301;7574
299;7576
299;7578
298;7580
298;7582
299;7584
300;7586
303;7588
304;7590
304;7592
303;7595
301;7597
300;7599
300;7601
299;7603
300;7605
302;7607
304;7609
305;7611
304;7613
302;7615
301;7617
301;7619
300;7621
300;7623
301;7625
302;7627
304;7629
305;7631
304;7633
302;7635
301;7638
300;7640
299;7642
299;7644
300;7646
302;7648
303;7650
304;7652
302;7654
300;7656
299;7658
299;7660
298;7662
298;7664
299;7666
301;7668
303;7670
303;7672
301;7674
299;7676
298;7678
298;7680
297;7682
297;7684
297;7686
300;7688
301;7690
301;7692
300;7694
299;7696
297;7698
296;7700
296;7702
295;7704
297;7706
299;7708
300;7710
300;7712
299;7714
298;7716
296;7718
295;7720
295;7723
295;7725
297;7727
299;7729
299;7731
299;7733
297;7735
297;7737
295;7739
294;7741
294;7743
295;7745
296;7747
299;7749
300;7751
298;7753
297;7755
296;7757
295;7759
294;7761
294;7763
295;7766
297;7768
298;7770
299;7772
298;7774
297;7776
295;7778
294;7780
294;7782
294;7784
295;7786
297;7788
298;7790
299;7792
298;7794
297;7796
296;7798
295;7800
295;7802
295;7804
297;7806
298;7808
300;7810
301;7812
301;7814
299;7816
298;7818
298;7820
298;7822
299;7824
301;7826
304;7828
305;7830
306;7832
306;7834
305;7836
304;7838
303;7840
303;7842
303;7844
304;7846
307;7848
308;7851
308;7853
306;7855
304;7857
303;7859
302;7861
301;7863
300;7865
302;7867
304;7869
304;7871
303;7873
302;7875
300;7877
298;7879
297;7881
297;7883
297;7885
298;7887
300;7889
301;7891
300;7894
297;7896
296;7898
294;7900
293;7902
292;7904
291;7906
291;7908
291;7910
290;7912
288;7914
286;7916
286;7918
286;7920
288;7922
292;7924
299;7926
308;7928
317;7930
326;7932
333;7934
337;7936
346;7938
356;7940
366;7942
376;7944
385;7946
394;7948
400;7950
402;7952
401;7954
397;7956
391;7958
385;7960
379;7962
374;7964
369;7966
366;7968
362;7970
357;7972
351;7974
345;7976
341;7979
336;7981
332;7983
329;7985
327;7987
325;7989
323;7991
321;7993
316;7995
312;7997
309;7999
305;8001
303;8003
301;8005
300;8007
300;8009
299;8011
297;8013
293;8015
290;8017
288;8019
286;8022
284;8024
283;8026
284;8028
285;8030
284;8032
282;8034
280;8036
277;8038
275;8040
274;8042
273;8044
274;8046
275;8048
276;8050
276;8052
275;8054
273;8056
271;8058
270;8060
269;8062
269;8064
269;8066
271;8068
273;8070
273;8072
273;8074
271;8076
270;8078
269;8080
268;8082
268;8084
270;8086
271;8088
273;8090
274;8092
273;8094
272;8096
271;8098
270;8100
269;8102
270;8104
271;8107
273;8109
275;8111
275;8113
274;8115
273;8117
272;8119
271;8121
271;8123
271;8125
272;8127
274;8129
276;8131
276;8133
275;8135
273;8137
273;8139
272;8141
271;8143
271;8145
273;8147
275;8150
276;8152
276;8154
274;8156
273;8158
272;8160
271;8162
271;8164
271;8166
274;8168
275;8170
276;8172
276;8174
274;8176
273;8178
273;8180
272;8182
273;8184
275;8186
277;8188
279;8190
280;8192
280;8194
280;8196
279;8198
279;8200
279;8202
279;8204
281;8206
282;8208
285;8210
287;8212
287;8214
286;8216
286;8218
285;8220
285;8222
286;8224
287;8226
289;8228
292;8230
293;8232
293;8235
292;8237
291;8239
290;8241
291;8243
291;8245
293;8247
295;8249
297;8251
298;8253
297;8255
296;8257
295;8259
294;8261
295;8263
295;8265
297;8267
299;8269
301;8271
301;8273
300;8275
299;8278
298;8280
297;8282
297;8284
298;8286
300;8288
302;8290
303;8292
303;8294
302;8296
301;8298
300;8300
299;8302
299;8304
300;8306
302;8308
304;8310
305;8312
304;8314
303;8316
301;8318
301;8320
301;8322
300;8324
301;8326
303;8328
304;8330
305;8332
305;8334
304;8336
302;8338
302;8340
300;8342
300;8344
301;8346
302;8348
304;8350
305;8352
304;8354
303;8356
301;8358
300;8360
299;8363
299;8365
300;8367
302;8369
304;8371
304;8373
303;8375
302;8377
300;8379
298;8381
298;8383
298;8385
299;8387
301;8389
303;8391
303;8393
301;8395
300;8397
298;8399
298;8401
297;8403
297;8406
299;8408
301;8410
302;8412
301;8414
300;8416
299;8418
297;8420
296;8422
296;8424
297;8426
298;8428
300;8430
301;8432
301;8434
299;8436
297;8438
296;8440
296;8442
296;8444
297;8446
298;8448
300;8450
302;8452
302;8454
301;8456
299;8458
299;8460
298;8462
298;8464
299;8466
301;8468
303;8470
305;8472
306;8474
305;8476
304;8478
303;8480
303;8482
303;8484
304;8486
306;8488
308;8491
309;8493
309;8495
307;8497
305;8499
304;8501
303;8503
303;8505
303;8507
305;8509
306;8511
306;8513
305;8515
303;8517
301;8519
300;8521
299;8523
298;8525
299;8527
301;8529
302;8531
302;8534
300;8536
299;8538
296;8540
296;8542
295;8544
295;8546
295;8548
297;8550
297;8552
296;8554
293;8556
290;8558
287;8560
285;8562
284;8564
284;8566
287;8568
290;8570
295;8572
299;8574
301;8576
306;8578
313;8580
320;8582
329;8584
338;8586
350;8588
363;8590
375;8592
384;8594
391;8596
395;8598
398;8600
398;8602
396;8604
393;8606
390;8608
386;8610
381;8612
375;8614
368;8616
362;8619
356;8621
350;8623
346;8625
342;8627
340;8629
338;8631
335;8633
331;8635
326;8637
322;8639
318;8641
314;8643
312;8645
310;8647
309;8649
308;8651
307;8653
303;8655
299;8657
297;8659
293;8662
291;8664
289;8666
289;8668
289;8670
289;8672
288;8674
286;8676
283;8678
281;8680
279;8682
278;8684
276;8686
277;8688
278;8690
279;8692
278;8694
276;8696
274;8698
272;8700
272;8702
271;8704
271;8706
271;8708
273;8710
275;8712
274;8714
273;8716
271;8718
270;8720
269;8722
269;8724
269;8726
270;8728
272;8730
274;8732
274;8734
273;8736
271;8738
271;8740
270;8742
270;8744
270;8747
272;8749
274;8751
275;8753
275;8755
274;8757
273;8759
272;8761
271;8763
272;8765
272;8767
274;8769
276;8771
277;8773
276;8775
275;8777
273;8779
273;8781
272;8783
272;8785
272;8787
274;8790
276;8792
277;8794
276;8796
274;8798
273;8800
272;8802
272;8804
272;8806
273;8808
275;8810
276;8812
276;8814
275;8816
274;8818
273;8820
272;8822
272;8824
272;8826
274;8828
277;8830
278;8832
279;8834
279;8836
277;8838
277;8840
276;8842
277;8844
278;8846
279;8848
282;8850
284;8852
285;8854
284;8856
283;8858
283;8860
282;8862
283;8864
283;8866
285;8868
288;8870
289;8872
290;8875
289;8877
288;8879
288;8881
288;8883
288;8885
289;8887
290;8889
293;8891
294;8893
294;8895
293;8897
292;8899
292;8901
291;8903
292;8905
293;8907
295;8909
297;8911
298;8913
298;8915
296;8918
296;8920
295;8922
294;8924
295;8926
296;8928
298;8930
300;8932
301;8934
301;8936
299;8938
298;8940
298;8942
297;8944
297;8946
299;8948
300;8950
302;8952
303;8954
302;8956
301;8958
300;8960
299;8962
299;8964
298;8966
300;8968
302;8970
303;8972
304;8974
304;8976
301;8978
300;8980
299;8982
299;8984
299;8986
300;8988
302;8990
304;8992
303;8994
303;8996
301;8998
300;9000
299;9003
298;9005
298;9007
300;9009
302;9011
303;9013
303;9015
302;9017
300;9019
299;9021
299;9023
299;9025
299;9027
301;9029
303;9031
304;9033
305;9035
304;9037
303;9039
303;9041
302;9043
303;9046
304;9048
306;9050
308;9052
309;9054
309;9056
308;9058
306;9060
305;9062
304;9064
305;9066
305;9068
306;9070
308;9072
308;9074
307;9076
304;9078
303;9080
301;9082
300;9084
300;9086
300;9088
301;9090
302;9092
304;9094
303;9096
301;9098
299;9100
297;9102
296;9104
296;9106
296;9108
298;9110
299;9112
300;9114
299;9116
296;9118
294;9120
293;9122
290;9124
288;9126
287;9128
286;9131
287;9133
286;9135
285;9137
285;9139
287;9141
291;9143
297;9145
305;9147
315;9149
326;9151
337;9153
349;9155
359;9157
368;9159
377;9161
385;9163
390;9165
394;9167
397;9169
397;9171
394;9174
389;9176
382;9178
376;9180
369;9182
363;9184
357;9186
353;9188
350;9190
347;9192
344;9194
339;9196
334;9198
329;9200
325;9202
322;9204
319;9206
317;9208
316;9210
315;9212
313;9214
312;9216
308;9218
304;9220
301;9222
298;9224
296;9226
295;9228
294;9230
295;9232
294;9234
292;9236
289;9238
287;9240
284;9242
282;9244
281;9246
280;9248
281;9250
283;9252
282;9254
281;9256
278;9259
276;9261
275;9263
274;9265
273;9267
274;9269
276;9271
277;9273
276;9275
275;9277
274;9279
273;9281
271;9283
271;9285
271;9287
273;9289
274;9291
276;9293
276;9295
275;9297
273;9299
272;9302
272;9304
271;9306
272;9308
274;9310
276;9312
277;9314
277;9316
276;9318
275;9320
274;9322
274;9324
274;9326
275;9328
277;9330
279;9332
280;9334
279;9336
278;9338
277;9340
276;9342
276;9344
276;9346
276;9348
278;9350
280;9352
281;9354
281;9356
279;9358
278;9360
277;9362
276;9364
276;9366
276;9368
278;9370
280;9372
281;9374
281;9376
279;9378
278;9380
277;9382
276;9384
276;9387
277;9389
280;9391
282;9393
282;9395
282;9397
281;9399
280;9401
279;9403
280;9405
280;9407
281;9409
284;9411
286;9413
287;9415
286;9417
285;9419
284;9421
284;9423
283;9425
284;9427
286;9430
288;9432
290;9434
290;9436
289;9438
288;9440
287;9442
286;9444
287;9446
287;9448
289;9450
291;9452
292;9454
292;9456
291;9458
290;9460
290;9462
289;9464
290;9466
290;9468
293;9470
294;9472
295;9474
296;9476
294;9478
293;9480
293;9482
292;9484
292;9486
293;9488
294;9490
297;9492
298;9494
298;9496
297;9498
296;9500
295;9502
295;9504
295;9506
296;9508
298;9510
300;9512
301;9515
301;9517
299;9519
298;9521
297;9523
297;9525
297;9527
298;9529
300;9531
302;9533
302;9535
302;9537
300;9539
299;9541
298;9543
298;9545
298;9547
299;9549
301;9551
304;9553
304;9555
303;9558
302;9560
301;9562
300;9564
300;9566
301;9568
303;9570
305;9572
307;9574
307;9576
307;9578
306;9580
305;9582
304;9584
305;9586
306;9588
308;9590
310;9592
311;9594
311;9596
309;9598
308;9600
307;9602
306;9604
304;9606
304;9608
305;9610
307;9612
307;9614
307;9616
305;9618
303;9620
302;9622
301;9624
300;9626
300;9628
301;9630
303;9632
304;9634
303;9636
301;9638
299;9640
298;9643
297;9645
296;9647
297;9649
299;9651
299;9653
299;9655
297;9657
294;9659
290;9661
287;9663
284;9665
282;9667
282;9669
283;9671
286;9673
289;9675
292;9677
297;9679
302;9681
310;9683
319;9686
328;9688
340;9690
354;9692
366;9694
376;9696
384;9698
389;9700
392;9702
393;9704
391;9706
388;9708
385;9710
382;9712
378;9714
372;9716
366;9718
359;9720
353;9722
347;9724
342;9726
340;9728
336;9730
335;9732
333;9734
330;9736
326;9738
321;9740
317;9742
314;9744
311;9746
309;9748
307;9750
307;9752
306;9754
304;9756
301;9758
297;9760
294;9762
292;9764
290;9766
289;9768
289;9771
290;9773
289;9775
288;9777
285;9779
283;9781
281;9783
279;9785
278;9787
278;9789
279;9791
280;9793
281;9795
280;9797
277;9799
276;9801
274;9803
273;9805
273;9807
273;9809
275;9811
277;9814
277;9816
277;9818
275;9820
273;9822
273;9824
272;9826
272;9828
273;9830
275;9832
276;9834
277;9836
276;9838
275;9840
273;9842
273;9844
273;9846
273;9848
274;9850
276;9852
278;9854
278;9856
278;9858
277;9860
275;9862
274;9864
275;9866
275;9868
276;9870
278;9872
280;9874
280;9876
279;9878
278;9880
277;9882
276;9884
276;9886
276;9888
278;9890
279;9892
280;9894
281;9896
280;9899
279;9901
277;9903
276;9905
277;9907
277;9909
278;9911
281;9913
282;9915
282;9917
281;9919
279;9921
278;9923
278;9925
279;9927
280;9929
282;9931
284;9933
285;9935
285;9937
284;9939
283;9942
283;9944
282;9946
283;9948
285;9950
286;9952
289;9954
289;9956
289;9958
288;9960
287;9962
286;9964
286;9966
286;9968
288;9970
289;9972
291;9974
292;9976
291;9978
289;9980
289;9982
288;9984
288;9986
288;9988
289;9990
291;9992
293;9994
294;9996
293;9998
292;10000
291;10002
291;10004
290;10006
291;10008
292;10010
295;10012
296;10014
297;10016
296;10018
295;10020
294;10022
293;10024
294;10027
294;10029
296;10031
298;10033
300;10035
300;10037
299;10039
298;10041
297;10043
297;10045
297;10047
297;10049
298;10051
301;10053
302;10055
302;10057
301;10059
299;10061
298;10063
299;10065
299;10067
299;10070
301;10072
304;10074
305;10076
305;10078
304;10080
303;10082
303;10084
303;10086
303;10088
305;10090
307;10092
309;10094
310;10096
310;10098
308;10100
307;10102
306;10104
306;10106
306;10108
307;10110
308;10112
309;10114
310;10116
309;10118
307;10120
305;10122
304;10124
302;10126
302;10128
303;10130
303;10132
304;10134
305;10136
304;10138
302;10140
300;10142
298;10144
298;10146
297;10148
298;10150
299;10152
301;10155
300;10157
299;10159
297;10161
296;10163
294;10165
292;10167
291;10169
290;10171
289;10173
288;10175
286;10177
283;10179
280;10181
280;10183
281;10185
284;10187
290;10189
299;10191
309;10193
319;10195
329;10198
338;10200
349;10202
359;10204
369;10206
377;10208
384;10210
390;10212
393;10214
393;10216
389;10218
384;10220
377;10222
371;10224
365;10226
360;10228
356;10230
352;10232
349;10234
345;10236
340;10238
337;10240
332;10242
328;10244
324;10246
320;10248
318;10250
318;10252
317;10254
315;10256
311;10258
307;10260
304;10262
301;10264
299;10266
296;10268
295;10270
296;10272
295;10274
294;10276
292;10278
290;10280
287;10283
285;10285
283;10287
282;10289
282;10291
283;10293
283;10295
283;10297
281;10299
279;10301
278;10303
276;10305
275;10307
275;10309
276;10311
277;10313
278;10315
278;10317
276;10319
274;10321
273;10323
273;10326
272;10328
273;10330
274;10332
276;10334
277;10336
277;10338
275;10340
274;10342
273;10344
273;10346
273;10348
273;10350
276;10352
278;10354
279;10356
278;10358
277;10360
276;10362
275;10364
275;10366
275;10368
276;10370
277;10372
280;10374
281;10376
280;10378
279;10380
278;10382
277;10384
276;10386
276;10388
277;10390
279;10392
281;10394
282;10396
281;10398
280;10400
279;10402
278;10404
277;10406
277;10408
278;10411
280;10413
282;10415
282;10417
281;10419
280;10421
279;10423
278;10425
278;10427
278;10429
279;10431
282;10433
284;10435
284;10437
283;10439
282;10441
282;10443
281;10445
282;10447
283;10449
284;10451
287;10454
288;10456
289;10458
288;10460
287;10462
286;10464
285;10466
286;10468
286;10470
289;10472
291;10474
292;10476
292;10478
291;10480
290;10482
289;10484
288;10486
288;10488
289;10490
291;10492
293;10494
294;10496
294;10498
293;10500
292;10502
291;10504
291;10506
291;10508
291;10510
293;10512
295;10514
296;10516
296;10518
295;10520
294;10522
293;10524
293;10526
293;10528
293;10530
295;10532
298;10534
299;10536
298;10539
297;10541
296;10543
295;10545
295;10547
295;10549
296;10551
298;10553
300;10555
301;10557
301;10559
299;10561
298;10563
298;10565
298;10567
298;10569
300;10571
302;10573
304;10575
304;10577
304;10579
303;10582
302;10584
302;10586
303;10588
303;10590
305;10592
307;10594
309;10596
310;10598
308;10600
307;10602
306;10604
305;10606
305;10608
305;10610
306;10612
308;10614
308;10616
308;10618
305;10620
303;10622
303;10624
301;10626
300;10628
300;10630
300;10632
302;10634
303;10636
303;10638
301;10640
298;10642
297;10644
296;10646
295;10648
295;10650
296;10652
298;10654
298;10656
298;10658
296;10660
294;10662
292;10664
291;10667
289;10669
287;10671
286;10673
285;10675
284;10677
282;10679
280;10681
279;10683
280;10685
282;10687
288;10689
295;10691
306;10693
315;10695
326;10697
335;10699
345;10701
355;10703
365;10705
374;10707
380;10710
386;10712
390;10714
391;10716
388;10718
383;10720
378;10722
371;10724
365;10726
359;10728
354;10730
351;10732
348;10734
344;10736
340;10738
335;10740
329;10742
325;10744
321;10746
318;10748
315;10750
315;10752
314;10754
313;10756
310;10758
307;10760
303;10762
300;10764
297;10766
295;10768
293;10770
293;10772
292;10774
292;10776
290;10778
288;10780
285;10782
283;10784
280;10786
279;10788
278;10790
279;10792
280;10795
280;10797
279;10799
277;10801
275;10803
273;10805
272;10807
271;10809
271;10811
273;10813
274;10815
274;10817
273;10819
271;10821
270;10823
269;10825
268;10827
268;10829
269;10831
271;10833
273;10835
273;10838
272;10840
271;10842
270;10844
269;10846
268;10848
268;10850
270;10852
272;10854
273;10856
274;10858
273;10860
272;10862
271;10864
271;10866
270;10868
270;10870
272;10872
275;10874
276;10876
276;10878
276;10880
274;10882
273;10884
272;10886
272;10888
272;10890
273;10892
275;10894
277;10896
277;10898
276;10900
275;10902
274;10904
273;10906
272;10908
272;10910
274;10912
276;10914
277;10916
278;10918
276;10920
275;10923
274;10925
273;10927
273;10929
274;10931
276;10933
279;10935
280;10937
280;10939
279;10941
279;10943
278;10945
278;10947
279;10949
279;10951
282;10953
284;10955
286;10957
285;10959
284;10961
283;10963
283;10966
283;10968
283;10970
285;10972
287;10974
288;10976
289;10978
289;10980
287;10982
287;10984
286;10986
285;10988
286;10990
287;10992
289;10994
291;10996
292;10998
290;11000
290;11002
289;11004
288;11006
288;11008
288;11010
289;11012
292;11014
294;11016
294;11018
295;11020
293;11022
292;11024
291;11026
291;11028
292;11030
293;11032
295;11034
297;11036
297;11038
297;11040
295;11042
295;11044
294;11046
294;11048
294;11051
296;11053
298;11055
300;11057
300;11059
299;11061
298;11063
297;11065
296;11067
297;11069
297;11071
299;11073
301;11075
303;11077
302;11079
302;11081
300;11083
300;11085
300;11087
300;11089
301;11091
303;11094
306;11096
307;11098
307;11100
306;11102
305;11104
304;11106
304;11108
305;11110
306;11112
308;11114
309;11116
310;11118
309;11120
307;11122
306;11124
305;11126
304;11128
303;11130
304;11132
306;11134
306;11136
307;11138
306;11140
304;11142
302;11144
301;11146
299;11148
299;11150
299;11152
300;11154
302;11156
302;11158
301;11160
298;11162
297;11164
296;11166
295;11168
295;11170
295;11172
296;11174
297;11176
296;11179
293;11181
290;11183
286;11185
283;11187
281;11189
279;11191
281;11193
285;11195
288;11197
293;11199
297;11201
303;11203
311;11205
318;11207
328;11209
339;11211
352;11213
363;11215
373;11217
379;11219
384;11222
385;11224
385;11226
383;11228
380;11230
376;11232
372;11234
369;11236
365;11238
359;11240
352;11242
347;11244
341;11246
336;11248
332;11250
329;11252
327;11254
326;11256
323;11258
319;11260
315;11262
313;11264
309;11266
307;11268
304;11270
302;11272
302;11274
302;11276
301;11278
298;11280
295;11282
292;11284
290;11286
288;11288
286;11290
286;11292
286;11294
287;11296
287;11298
285;11300
282;11302
280;11304
278;11307
277;11309
276;11311
277;11313
278;11315
279;11317
279;11319
277;11321
275;11323
274;11325
273;11327
272;11329
272;11331
273;11333
275;11335
276;11337
276;11339
274;11341
273;11343
272;11345
270;11347
270;11350
271;11352
273;11354
275;11356
275;11358
275;11360
274;11362
273;11364
272;11366
271;11368
272;11370
272;11372
274;11374
277;11376
277;11378
277;11380
276;11382
274;11384
274;11386
274;11388
274;11390
274;11392
276;11394
278;11396
279;11398
279;11400
278;11402
277;11404
275;11406
275;11408
275;11410
276;11412
277;11414
279;11416
280;11418
280;11420
278;11422
277;11424
276;11426
275;11428
275;11430
276;11432
279;11435
280;11437
282;11439
281;11441
280;11443
279;11445
278;11447
278;11449
279;11451
281;11453
283;11455
285;11457
286;11459
286;11461
285;11463
284;11465
284;11467
284;11469
285;11471
287;11473
289;11475
291;11478
291;11480
290;11482
289;11484
288;11486
287;11488
287;11490
288;11492
290;11494
292;11496
294;11498
293;11500
292;11502
291;11504
290;11506
289;11508
290;11510
291;11512
293;11514
294;11516
296;11518
296;11520
294;11522
293;11524
292;11526
292;11528
292;11530
292;11532
294;11534
296;11536
298;11538
298;11540
297;11542
296;11544
295;11546
294;11548
294;11550
295;11552
297;11554
300;11556
300;11558
300;11560
298;11563
297;11565
297;11567
296;11569
296;11571
298;11573
300;11575
302;11577
303;11579
302;11581
301;11583
300;11585
299;11587
298;11589
298;11591
299;11593
302;11595
304;11597
304;11599
303;11601
301;11603
301;11606
300;11608
300;11610
300;11612
301;11614
304;11616
306;11618
306;11620
305;11622
304;11624
304;11626
303;11628
303;11630
304;11632
307;11634
309;11636
310;11638
310;11640
309;11642
307;11644
306;11646
306;11648
305;11650
305;11652
306;11654
308;11656
308;11658
309;11660
306;11662
305;11664
302;11666
302;11668
301;11670
300;11672
302;11674
303;11676
304;11678
303;11680
301;11682
300;11684
298;11686
297;11688
297;11691
297;11693
298;11695
300;11697
300;11699
300;11701
298;11703
295;11705
294;11707
292;11709
290;11711
289;11713
288;11715
288;11717
287;11719
285;11721
283;11723
283;11725
285;11727
289;11729
294;11731
303;11734
313;11736
323;11738
332;11740
341;11742
351;11744
359;11746
367;11748
375;11750
380;11752
385;11754
388;11756
388;11758
385;11760
379;11762
373;11764
367;11766
361;11768
356;11770
351;11772
348;11774
346;11776
344;11778
340;11780
334;11782
329;11784
325;11786
321;11788
317;11790
315;11792
313;11794
313;11796
312;11798
309;11800
306;11802
302;11804
300;11806
297;11808
295;11810
293;11812
294;11814
294;11816
294;11819
292;11821
289;11823
286;11825
285;11827
283;11829
282;11831
281;11833
282;11835
283;11837
283;11839
282;11841
280;11843
278;11845
276;11847
275;11849
275;11851
275;11853
277;11855
278;11857
279;11859
277;11862
275;11864
274;11866
273;11868
273;11870
272;11872
274;11874
276;11876
277;11878
277;11880
276;11882
275;11884
274;11886
273;11888
273;11890
273;11892
275;11894
277;11896
279;11898
279;11900
277;11902
277;11904
276;11906
275;11908
275;11910
275;11912
276;11914
278;11916
280;11918
281;11920
280;11922
279;11924
277;11926
277;11928
276;11930
277;11932
278;11934
280;11936
282;11938
282;11940
281;11942
280;11944
279;11947
278;11949
277;11951
278;11953
280;11955
282;11957
283;11959
283;11961
282;11963
280;11965
279;11967
279;11969
279;11971
280;11973
282;11975
285;11977
286;11979
286;11981
285;11983
284;11985
284;11987
283;11990
284;11992
285;11994
288;11996
290;11998
291;12000
290;12002
289;12004
288;12006
288;12008
287;12010
288;12012
289;12014
292;12016
293;12018
294;12020
293;12022
292;12024
291;12026
290;12028
290;12030
290;12032
291;12034
293;12036
295;12038
296;12040
296;12042
294;12044
293;12046
292;12048
292;12050
292;12052
293;12054
295;12056
297;12058
298;12060
297;12062
296;12064
294;12066
294;12068
294;12070
294;12072
296;12075
298;12077
300;12079
300;12081
299;12083
298;12085
297;12087
297;12089
296;12091
297;12093
299;12095
301;12097
303;12099
302;12101
302;12103
301;12105
299;12107
299;12109
299;12111
300;12113
302;12115
304;12118
306;12120
305;12122
303;12124
302;12126
302;12128
301;12130
301;12132
302;12134
304;12136
305;12138
306;12140
305;12142
304;12144
303;12146
302;12148
301;12150
301;12152
303;12154
304;12156
306;12158
306;12160
306;12162
304;12164
303;12166
301;12168
301;12170
301;12172
301;12174
303;12176
304;12178
305;12180
304;12182
302;12184
301;12186
300;12188
299;12190
299;12192
300;12194
302;12196
303;12198
303;12200
303;12203
301;12205
300;12207
298;12209
298;12211
298;12213
299;12215
301;12217
302;12219
302;12221
301;12223
299;12225
298;12227
297;12229
296;12231
297;12233
298;12235
300;12237
302;12239
301;12241
299;12243
298;12246
296;12248
296;12250
296;12252
296;12254
298;12256
300;12258
301;12260
300;12262
298;12264
297;12266
296;12268
295;12270
295;12272
296;12274
297;12276
299;12278
300;12280
299;12282
298;12284
297;12286
296;12288
295;12290
295;12292
295;12294
297;12296
299;12298
300;12300
300;12302
298;12304
297;12306
296;12308
295;12310
295;12312
296;12314
298;12316
299;12318
300;12320
300;12322
298;12324
297;12326
296;12328
295;12331
295;12333
296;12335
299;12337
300;12339
301;12341
300;12343
298;12345
296;12347
296;12349
296;12351
296;12353
297;12355
300;12357
301;12359
301;12361
299;12363
298;12365
297;12367
296;12369
296;12371
296;12374
298;12376
300;12378
301;12380
301;12382
300;12384
298;12386
297;12388
296;12390
296;12392
297;12394
299;12396
301;12398
302;12400
301;12402
300;12404
298;12406
297;12408
297;12410
297;12412
298;12414
299;12416
301;12418
303;12420
302;12422
301;12424
299;12426
298;12428
297;12430
297;12432
298;12434
300;12436
301;12438
303;12440
302;12442
300;12444
299;12446
298;12448
297;12450
297;12452
298;12454
300;12456
302;12459
303;12461
302;12463
300;12465
299;12467
298;12469
297;12471
298;12473
299;12475
301;12477
302;12479
303;12481
302;12483
300;12485
299;12487
298;12489
298;12491
298;12493
299;12495
301;12497
303;12499
303;12502
302;12504
300;12506
299;12508
298;12510
298;12512
298;12514
300;12516
302;12518
303;12520
303;12522
302;12524
300;12526
299;12528
299;12530
299;12532
299;12534
301;12536
303;12538
304;12540
303;12542
302;12544
301;12546
299;12548
299;12550
299;12552
299;12554
301;12556
302;12558
304;12560
303;12562
302;12564
301;12566
299;12568
299;12570
299;12572
299;12574
301;12576
303;12578
304;12580
303;12582
301;12584
300;12587
299;12589
299;12591
299;12593
300;12595
302;12597
303;12599
304;12601
303;12603
301;12605
300;12607
299;12609
299;12611
299;12613
300;12615
302;12617
303;12619
304;12621
303;12623
302;12625
300;12627
300;12630
299;12632
300;12634
301;12636
303;12638
305;12640
305;12642
304;12644
303;12646
302;12648
302;12650
302;12652
303;12654
305;12656
307;12658
309;12660
309;12662
307;12664
306;12666
305;12668
304;12670
304;12672
304;12674
306;12676
308;12678
309;12680
309;12682
308;12684
306;12686
305;12688
304;12690
303;12692
303;12694
304;12696
306;12698
307;12700
306;12702
305;12704
303;12706
301;12708
301;12710
301;12712
301;12715
302;12717
304;12719
305;12721
304;12723
302;12725
300;12727
299;12729
297;12731
297;12733
296;12735
296;12737
297;12739
296;12741
294;12743
292;12745
291;12747
291;12749
294;12751
298;12753
305;12755
313;12758
321;12760
330;12762
338;12764
346;12766
355;12768
365;12770
375;12772
384;12774
394;12776
402;12778
407;12780
410;12782
408;12784
404;12786
399;12788
392;12790
387;12792
381;12794
377;12796
374;12798
371;12800
367;12802
361;12804
355;12806
349;12808
345;12810
340;12812
337;12814
335;12816
334;12818
331;12820
329;12822
324;12824
320;12826
316;12828
313;12830
310;12832
308;12834
308;12836
307;12838
306;12840
304;12843
301;12845
297;12847
294;12849
292;12851
290;12853
290;12855
290;12857
291;12859
290;12861
288;12863
286;12865
283;12867
281;12869
280;12871
279;12873
280;12875
281;12877
281;12879
282;12881
280;12883
278;12886
276;12888
275;12890
274;12892
273;12894
274;12896
276;12898
277;12900
277;12902
276;12904
275;12906
273;12908
272;12910
272;12912
272;12914
273;12916
274;12918
276;12920
276;12922
274;12924
273;12926
273;12928
272;12930
271;12932
271;12934
272;12936
274;12938
276;12940
277;12942
276;12944
274;12946
273;12948
273;12950
272;12952
272;12954
274;12956
276;12958
278;12960
278;12962
277;12964
276;12966
275;12968
274;12971
274;12973
274;12975
276;12977
278;12979
279;12981
279;12983
277;12985
276;12987
275;12989
274;12991
274;12993
274;12995
276;12997
278;12999
279;13001
279;13003
277;13005
276;13007
275;13009
275;13011
275;13014
276;13016
278;13018
280;13020
281;13022
280;13024
279;13026
278;13028
278;13030
278;13032
279;13034
281;13036
283;13038
285;13040
286;13042
285;13044
285;13046
284;13048
284;13050
285;13052
285;13054
286;13056
288;13058
290;13060
292;13062
291;13064
290;13066
290;13068
289;13070
289;13072
290;13074
291;13076
293;13078
295;13080
296;13082
295;13084
294;13086
293;13088
292;13090
292;13092
293;13094
295;13096
297;13099
298;13101
299;13103
298;13105
296;13107
295;13109
295;13111
294;13113
295;13115
297;13117
299;13119
300;13121
300;13123
299;13125
298;13127
297;13129
297;13131
297;13133
297;13135
299;13137
301;13139
303;13142
302;13144
301;13146
300;13148
299;13150
299;13152
299;13154
300;13156
302;13158
304;13160
305;13162
304;13164
302;13166
302;13168
301;13170
300;13172
300;13174
302;13176
304;13178
306;13180
306;13182
306;13184
304;13186
303;13188
302;13190
301;13192
301;13194
302;13196
304;13198
306;13200
306;13202
306;13204
304;13206
303;13208
302;13210
301;13212
302;13214
303;13216
304;13218
306;13220
306;13222
305;13224
303;13227
302;13229
301;13231
301;13233
300;13235
301;13237
303;13239
305;13241
304;13243
303;13245
302;13247
300;13249
299;13251
298;13253
299;13255
300;13257
302;13259
303;13261
302;13263
301;13265
300;13267
298;13270
297;13272
297;13274
297;13276
299;13278
301;13280
302;13282
301;13284
299;13286
298;13288
296;13290
296;13292
296;13294
297;13296
298;13298
300;13300
301;13302
300;13304
298;13306
297;13308
296;13310
295;13312
295;13314
295;13316
297;13318
299;13320
300;13322
300;13324
298;13326
297;13328
296;13330
295;13332
295;13334
295;13336
297;13338
299;13340
299;13342
299;13344
297;13346
296;13348
295;13350
294;13352
294;13355
295;13357
297;13359
299;13361
299;13363
298;13365
296;13367
295;13369
294;13371
294;13373
294;13375
295;13377
297;13379
299;13381
299;13383
298;13385
296;13387
295;13389
294;13391
294;13393
294;13395
296;13398
298;13400
299;13402
299;13404
297;13406
296;13408
294;13410
294;13412
293;13414
294;13416
296;13418
297;13420
298;13422
298;13424
297;13426
295;13428
294;13430
294;13432
294;13434
295;13436
296;13438
297;13440
299;13442
299;13444
297;13446
296;13448
296;13450
295;13452
294;13454
295;13456
298;13458
299;13460
301;13462
301;13464
299;13466
298;13468
297;13470
296;13472
297;13474
298;13476
301;13478
303;13480
304;13483
304;13485
303;13487
302;13489
301;13491
301;13493
300;13495
302;13497
304;13499
305;13501
306;13503
305;13505
303;13507
302;13509
300;13511
300;13513
300;13515
301;13517
303;13519
304;13521
304;13523
302;13526
300;13528
298;13530
297;13532
297;13534
297;13536
298;13538
300;13540
301;13542
301;13544
299;13546
297;13548
296;13550
295;13552
294;13554
294;13556
295;13558
296;13560
297;13562
295;13564
292;13566
291;13568
287;13570
285;13572
284;13574
284;13576
287;13578
291;13580
296;13582
300;13584
305;13586
311;13588
319;13590
326;13592
335;13594
347;13596
359;13598
372;13600
383;13602
392;13604
398;13606
403;13608
406;13611
407;13613
405;13615
402;13617
399;13619
394;13621
389;13623
383;13625
376;13627
369;13629
363;13631
357;13633
353;13635
350;13637
347;13639
344;13641
341;13643
336;13645
331;13647
327;13649
323;13651
319;13654
316;13656
315;13658
314;13660
312;13662
309;13664
306;13666
302;13668
299;13670
296;13672
294;13674
292;13676
292;13678
292;13680
291;13682
290;13684
286;13686
284;13688
281;13690
280;13692
278;13694
278;13696
278;13698
279;13700
279;13702
278;13704
276;13706
274;13708
272;13710
271;13712
271;13714
270;13716
271;13718
273;13720
273;13722
273;13724
271;13726
270;13728
268;13730
267;13732
267;13734
267;13736
269;13739
271;13741
272;13743
271;13745
270;13747
269;13749
267;13751
267;13753
267;13755
268;13757
270;13759
272;13761
273;13763
272;13765
270;13767
270;13769
269;13771
268;13773
269;13775
270;13777
272;13779
273;13782
274;13784
273;13786
272;13788
271;13790
270;13792
270;13794
270;13796
272;13798
274;13800
275;13802
275;13804
274;13806
272;13808
271;13810
270;13812
270;13814
271;13816
272;13818
273;13820
275;13822
275;13824
274;13826
272;13828
271;13830
270;13832
270;13834
270;13836
272;13838
274;13840
275;13842
276;13844
275;13846
273;13848
273;13850
272;13852
273;13854
273;13856
275;13858
278;13860
279;13862
279;13864
278;13867
277;13869
277;13871
276;13873
277;13875
278;13877
280;13879
283;13881
284;13883
284;13885
283;13887
282;13889
281;13891
281;13893
281;13895
282;13897
284;13899
287;13901
288;13903
287;13905
286;13907
285;13910
284;13912
284;13914
285;13916
286;13918
288;13920
290;13922
291;13924
289;13926
288;13928
288;13930
287;13932
287;13934
287;13936
288;13938
290;13940
292;13942
292;13944
291;13946
290;13948
289;13950
289;13952
289;13954
289;13956
290;13958
292;13960
294;13962
295;13964
294;13966
293;13968
292;13970
292;13972
292;13974
292;13976
294;13978
296;13980
298;13982
298;13984
298;13986
296;13988
295;13990
295;13992
294;13995
295;13997
297;13999
299;14001
301;14003
301;14005
300;14007
298;14009
297;14011
297;14013
297;14015
298;14017
299;14019
301;14021
302;14023
302;14025
300;14027
299;14029
298;14031
298;14033
298;14035
299;14038
300;14040
302;14042
303;14044
302;14046
300;14048
299;14050
298;14052
297;14054
297;14056
298;14058
300;14060
302;14062
302;14064
300;14066
299;14068
298;14070
297;14072
296;14074
296;14076
297;14078
298;14080
300;14082
300;14084
299;14086
297;14088
296;14090
295;14092
294;14094
294;14096
295;14098
297;14100
298;14102
299;14104
297;14106
296;14108
294;14110
293;14112
293;14114
293;14116
294;14118
296;14120
297;14123
298;14125
296;14127
294;14129
293;14131
292;14133
292;14135
293;14137
294;14139
295;14141
297;14143
297;14145
295;14147
293;14149
292;14151
292;14153
291;14155
292;14157
293;14159
295;14161
296;14163
295;14166
294;14168
293;14170
291;14172
291;14174
290;14176
291;14178
293;14180
295;14182
296;14184
295;14186
293;14188
292;14190
291;14192
291;14194
290;14196
291;14198
293;14200
295;14202
295;14204
294;14206
293;14208
292;14210
291;14212
291;14214
291;14216
291;14218
293;14220
295;14222
296;14224
295;14226
293;14228
292;14230
291;14232
291;14234
291;14236
292;14238
293;14240
295;14242
296;14244
295;14246
293;14248
292;14251
291;14253
291;14255
292;14257
292;14259
294;14261
296;14263
297;14265
295;14267
294;14269
293;14271
292;14273
292;14275
292;14277
294;14279
296;14281
297;14283
297;14285
296;14287
294;14289
293;14291
292;14294
292;14296
292;14298
294;14300
296;14302
297;14304
297;14306
295;14308
293;14310
293;14312
293;14314
293;14316
293;14318
296;14320
298;14322
299;14324
298;14326
296;14328
295;14330
295;14332
295;14334
294;14336
296;14338
298;14340
300;14342
302;14344
302;14346
301;14348
300;14350
299;14352
299;14354
299;14356
301;14358
302;14360
305;14362
306;14364
304;14366
303;14368
302;14370
300;14372
300;14374
299;14376
300;14379
302;14381
303;14383
303;14385
302;14387
300;14389
299;14391
297;14393
297;14395
297;14397
298;14399
299;14401
301;14403
301;14405
299;14407
297;14409
296;14411
295;14413
294;14415
295;14417
295;14419
296;14422
297;14424
296;14426
293;14428
290;14430
287;14432
285;14434
284;14436
284;14438
287;14440
291;14442
295;14444
300;14446
304;14448
309;14450
316;14452
324;14454
333;14456
344;14458
356;14460
368;14462
374;14464
382;14466
390;14468
395;14470
399;14472
400;14474
400;14476
397;14478
394;14480
391;14482
386;14484
380;14486
373;14488
366;14490
360;14492
354;14494
349;14496
345;14498
343;14500
341;14502
338;14504
334;14507
328;14509
324;14511
320;14513
317;14515
314;14517
313;14519
311;14521
310;14523
308;14525
305;14527
301;14529
298;14531
295;14533
293;14535
291;14537
290;14539
291;14541
290;14543
289;14545
286;14547
283;14550
281;14552
280;14554
278;14556
278;14558
278;14560
279;14562
280;14564
279;14566
276;14568
274;14570
273;14572
272;14574
271;14576
271;14578
272;14580
274;14582
275;14584
274;14586
272;14588
270;14590
270;14592
269;14594
269;14596
269;14598
270;14600
272;14602
273;14604
273;14606
271;14608
271;14610
269;14612
268;14614
269;14616
269;14618
271;14620
273;14622
275;14624
274;14626
272;14628
272;14630
271;14632
271;14635
271;14637
272;14639
274;14641
276;14643
277;14645
277;14647
275;14649
275;14651
274;14653
274;14655
273;14657
275;14659
277;14661
278;14663
279;14665
279;14667
277;14669
276;14671
275;14673
275;14675
275;14678
277;14680
278;14682
280;14684
280;14686
279;14688
277;14690
276;14692
275;14694
276;14696
276;14698
277;14700
279;14702
280;14704
281;14706
280;14708
279;14710
278;14712
277;14714
278;14716
278;14718
280;14720
282;14722
284;14724
284;14726
283;14728
282;14730
282;14732
281;14734
281;14736
282;14738
284;14740
286;14742
288;14744
287;14746
287;14748
286;14750
285;14752
284;14754
285;14756
285;14758
287;14760
290;14763
291;14765
290;14767
289;14769
288;14771
287;14773
287;14775
287;14777
288;14779
290;14781
291;14783
292;14785
292;14787
290;14789
289;14791
289;14793
288;14795
289;14797
290;14799
292;14801
293;14803
294;14806
293;14808
292;14810
291;14812
291;14814
290;14816
291;14818
292;14820
295;14822
296;14824
296;14826
296;14828
295;14830
293;14832
293;14834
293;14836
294;14838
296;14840
298;14842
300;14844
299;14846
299;14848
298;14850
297;14852
296;14854
296;14856
296;14858
298;14860
300;14862
302;14864
302;14866
301;14868
300;14870
298;14872
298;14874
298;14876
298;14878
299;14880
302;14882
303;14884
303;14886
301;14888
300;14891
299;14893
298;14895
297;14897
298;14899
300;14901
302;14903
303;14905
302;14907
301;14909
300;14911
298;14913
297;14915
297;14917
298;14919
299;14921
301;14923
302;14925
302;14927
299;14929
298;14931
297;14934
297;14936
296;14938
297;14940
299;14942
300;14944
301;14946
300;14948
298;14950
297;14952
296;14954
295;14956
295;14958
297;14960
298;14962
300;14964
299;14966
298;14968
296;14970
295;14972
294;14974
294;14976
294;14978
294;14980
297;14982
298;14984
298;14986
297;14988
296;14990
294;14992
294;14994
293;14996
293;14998
294;15000
296;15002
298;15004
298;15006
297;15008
295;15010
294;15012
293;15014
293;15016
293;15019
295;15021
297;15023
298;15025
297;15027
296;15029
295;15031
293;15033
293;15035
293;15037
293;15039
295;15041
297;15043
298;15045
297;15047
296;15049
294;15051
293;15053
293;15055
293;15057
293;15059
296;15062
297;15064
298;15066
297;15068
295;15070
295;15072
293;15074
293;15076
293;15078
294;15080
296;15082
298;15084
299;15086
298;15088
296;15090
296;15092
295;15094
295;15096
294;15098
296;15100
298;15102
299;15104
300;15106
300;15108
299;15110
298;15112
298;15114
298;15116
298;15118
300;15120
302;15122
304;15124
305;15126
305;15128
304;15130
303;15132
302;15134
302;15136
302;15138
304;15140
305;15142
307;15144
307;15147
306;15149
304;15151
303;15153
301;15155
301;15157
301;15159
302;15161
304;15163
304;15165
304;15167
303;15169
301;15171
299;15173
298;15175
298;15177
298;15179
300;15181
301;15183
302;15185
301;15187
299;15190
297;15192
296;15194
295;15196
294;15198
293;15200
294;15202
294;15204
294;15206
291;15208
289;15210
288;15212
287;15214
289;15216
293;15218
299;15220
307;15222
315;15224
323;15226
330;15228
337;15230
341;15232
350;15234
360;15236
370;15238
378;15240
387;15242
395;15244
399;15246
399;15248
397;15250
392;15252
387;15254
382;15256
376;15258
372;15260
368;15262
364;15264
360;15266
353;15268
347;15270
342;15272
336;15275
333;15277
329;15279
327;15281
326;15283
325;15285
322;15287
318;15289
314;15291
310;15293
307;15295
304;15297
303;15299
302;15301
302;15303
301;15305
299;15307
296;15309
293;15311
291;15313
289;15315
287;15318
286;15320
287;15322
287;15324
287;15326
286;15328
283;15330
281;15332
279;15334
278;15336
277;15338
277;15340
278;15342
280;15344
280;15346
279;15348
276;15350
275;15352
273;15354
273;15356
273;15358
273;15360
274;15362
276;15364
277;15366
276;15368
274;15370
274;15372
272;15374
272;15376
272;15378
273;15380
275;15382
277;15384
278;15386
277;15388
276;15390
275;15392
274;15394
274;15396
274;15398
275;15400
277;15403
279;15405
280;15407
279;15409
278;15411
277;15413
277;15415
277;15417
277;15419
279;15421
281;15423
283;15425
283;15427
282;15429
281;15431
280;15433
280;15435
280;15437
281;15439
282;15441
284;15443
286;15446
286;15448
284;15450
283;15452
282;15454
282;15456
282;15458
282;15460
284;15462
286;15464
287;15466
287;15468
285;15470
284;15472
283;15474
283;15476
283;15478
284;15480
286;15482
288;15484
289;15486
289;15488
288;15490
287;15492
286;15494
285;15496
285;15498
286;15500
288;15502
290;15504
292;15506
291;15508
290;15510
289;15512
288;15514
287;15516
288;15518
289;15520
290;15522
292;15524
294;15526
293;15528
292;15531
290;15533
289;15535
289;15537
289;15539
290;15541
292;15543
294;15545
294;15547
293;15549
292;15551
291;15553
290;15555
290;15557
290;15559
291;15561
293;15563
295;15565
295;15567
294;15569
292;15571
291;15574
290;15576
290;15578
291;15580
293;15582
294;15584
296;15586
296;15588
295;15590
294;15592
293;15594
292;15596
293;15598
294;15600
295;15602
298;15604
299;15606
299;15608
297;15610
296;15612
295;15614
295;15616
295;15618
296;15620
298;15622
300;15624
301;15626
302;15628
300;15630
299;15632
298;15634
298;15636
298;15638
298;15640
300;15642
302;15644
303;15646
303;15648
302;15650
301;15652
300;15654
299;15656
299;15659
299;15661
302;15663
303;15665
304;15667
304;15669
302;15671
300;15673
300;15675
299;15677
299;15679
300;15681
302;15683
304;15685
304;15687
303;15689
301;15691
300;15693
299;15695
298;15697
298;15699
300;15702
301;15704
304;15706
303;15708
301;15710
300;15712
299;15714
298;15716
297;15718
298;15720
299;15722
301;15724
303;15726
302;15728
301;15730
299;15732
298;15734
297;15736
297;15738
297;15740
298;15742
299;15744
301;15746
301;15748
300;15750
298;15752
297;15754
296;15756
296;15758
296;15760
297;15762
299;15764
301;15766
301;15768
299;15770
297;15772
297;15774
296;15776
295;15778
295;15780
297;15782
299;15784
301;15787
300;15789
299;15791
297;15793
296;15795
295;15797
295;15799
296;15801
298;15803
299;15805
300;15807
300;15809
298;15811
296;15813
296;15815
296;15817
295;15819
297;15821
299;15823
300;15825
301;15827
300;15830
299;15832
298;15834
297;15836
297;15838
297;15840
299;15842
301;15844
303;15846
304;15848
303;15850
302;15852
302;15854
301;15856
302;15858
303;15860
304;15862
307;15864
308;15866
308;15868
307;15870
306;15872
305;15874
304;15876
304;15878
304;15880
305;15882
307;15884
308;15886
308;15888
306;15890
304;15892
303;15894
301;15896
301;15898
301;15900
302;15902
303;15904
304;15906
304;15908
302;15910
300;15912
299;15915
298;15917
297;15919
297;15921
299;15923
300;15925
301;15927
300;15929
298;15931
296;15933
294;15935
291;15937
290;15939
289;15941
289;15943
289;15945
290;15947
290;15949
290;15951
292;15953
295;15955
300;15958
307;15960
315;15962
325;15964
336;15966
346;15968
355;15970
364;15972
373;15974
381;15976
389;15978
394;15980
400;15982
403;15984
403;15986
400;15988
395;15990
388;15992
381;15994
375;15996
369;15998
366;16000
362;16002
358;16004
356;16006
351;16008
346;16010
341;16012
336;16014
331;16016
328;16018
325;16020
322;16022
321;16024
320;16026
317;16028
313;16030
309;16032
306;16034
303;16036
301;16038
299;16040
298;16043
298;16045
298;16047
295;16049
292;16051
289;16053
287;16055
284;16057
283;16059
282;16061
283;16063
284;16065
284;16067
282;16069
280;16071
278;16073
276;16075
274;16077
274;16079
274;16081
276;16083
277;16086
277;16088
276;16090
274;16092
273;16094
271;16096
271;16098
270;16100
272;16102
273;16104
275;16106
275;16108
274;16110
272;16112
271;16114
270;16116
270;16118
270;16120
272;16122
274;16124
275;16126
276;16128
275;16130
274;16132
273;16134
272;16136
272;16138
272;16140
274;16142
276;16144
278;16146
278;16148
278;16150
276;16152
275;16154
275;16156
274;16158
275;16160
277;16162
279;16164
280;16166
281;16168
280;16171
279;16173
278;16175
278;16177
278;16179
278;16181
280;16183
282;16185
283;16187
283;16189
282;16191
281;16193
279;16195
279;16197
279;16199
280;16201
282;16203
284;16205
285;16207
284;16209
283;16211
282;16214
282;16216
281;16218
281;16220
282;16222
284;16224
287;16226
288;16228
287;16230
286;16232
285;16234
285;16236
284;16238
285;16240
286;16242
288;16244
290;16246
291;16248
290;16250
289;16252
288;16254
287;16256
287;16258
287;16260
288;16262
290;16264
292;16266
293;16268
292;16270
291;16272
290;16274
289;16276
288;16278
289;16280
289;16282
292;16284
293;16286
294;16288
293;16290
292;16292
291;16294
290;16296
290;16299
290;16301
291;16303
293;16305
294;16307
295;16309
294;16311
292;16313
291;16315
291;16317
291;16319
291;16321
293;16323
295;16325
296;16327
296;16329
295;16331
294;16333
293;16335
292;16337
293;16339
294;16342
295;16344
298;16346
299;16348
299;16350
298;16352
297;16354
296;16356
295;16358
295;16360
297;16362
299;16364
301;16366
302;16368
301;16370
300;16372
299;16374
298;16376
297;16378
298;16380
299;16382
300;16384
302;16386
303;16388
303;16390
302;16392
301;16394
299;16396
299;16398
299;16400
300;16402
302;16404
303;16406
304;16408
304;16410
302;16412
301;16414
300;16416
299;16418
299;16420
300;16422
302;16424
303;16427
304;16429
303;16431
301;16433
300;16435
299;16437
298;16439
298;16441
300;16443
302;16445
303;16447
303;16449
302;16451
300;16453
299;16455
298;16457
297;16459
297;16461
299;16463
301;16465
302;16467
302;16470
300;16472
299;16474
298;16476
297;16478
296;16480
296;16482
298;16484
300;16486
301;16488
300;16490
299;16492
297;16494
297;16496
295;16498
295;16500
296;16502
298;16504
299;16506
300;16508
299;16510
298;16512
297;16514
296;16516
295;16518
295;16520
295;16522
296;16524
298;16526
300;16528
299;16530
297;16532
296;16534
295;16536
294;16538
294;16540
295;16542
297;16544
298;16546
300;16548
299;16550
297;16552
295;16555
294;16557
294;16559
294;16561
295;16563
297;16565
298;16567
299;16569
298;16571
297;16573
295;16575
294;16577
294;16579
294;16581
295;16583
297;16585
299;16587
300;16589
298;16591
297;16593
296;16595
295;16598
295;16600
296;16602
298;16604
300;16606
301;16608
301;16610
300;16612
299;16614
299;16616
299;16618
299;16620
300;16622
302;16624
305;16626
306;16628
306;16630
305;16632
304;16634
303;16636
303;16638
303;16640
303;16642
305;16644
307;16646
308;16648
308;16650
306;16652
305;16654
303;16656
303;16658
302;16660
302;16662
303;16664
304;16666
305;16668
305;16670
302;16672
301;16674
299;16676
298;16678
298;16680
298;16683
300;16685
301;16687
301;16689
300;16691
299;16693
297;16695
295;16697
294;16699
294;16701
294;16703
294;16705
295;16707
294;16709
292;16711
289;16713
286;16715
284;16717
284;16719
285;16721
289;16723
295;16726
301;16728
308;16730
314;16732
321;16734
329;16736
338;16738
348;16740
359;16742
371;16744
382;16746
392;16748
399;16750
402;16752
404;16754
404;16756
401;16758
396;16760
391;16762
387;16764
383;16766
381;16768
376;16770
369;16772
362;16774
356;16776
351;16778
347;16780
342;16782
340;16784
338;16786
336;16788
332;16790
328;16792
322;16794
319;16796
315;16798
312;16800
309;16802
308;16804
308;16806
306;16808
303;16811
300;16813
297;16815
293;16817
290;16819
288;16821
288;16823
288;16825
288;16827
287;16829
285;16831
282;16833
280;16835
278;16837
276;16839
276;16841
275;16843
276;16845
277;16847
277;16849
275;16851
273;16854
271;16856
270;16858
269;16860
268;16862
269;16864
271;16866
272;16868
272;16870
271;16872
269;16874
268;16876
267;16878
267;16880
267;16882
268;16884
270;16886
271;16888
272;16890
270;16892
269;16894
268;16896
267;16898
267;16900
267;16902
269;16904
271;16906
272;16908
273;16910
272;16912
271;16914
270;16916
270;16918
269;16920
269;16922
271;16924
274;16926
275;16928
276;16930
275;16932
273;16934
273;16936
272;16939
272;16941
273;16943
275;16945
276;16947
278;16949
278;16951
276;16953
275;16955
274;16957
274;16959
274;16961
274;16963
277;16965
279;16967
279;16969
279;16971
278;16973
276;16975
276;16977
276;16979
275;16982
276;16984
278;16986
281;16988
281;16990
281;16992
280;16994
279;16996
278;16998
279;17000
279;17002
280;17004
283;17006
285;17008
286;17010
285;17012
284;17014
283;17016
282;17018
282;17020
283;17022
284;17024
286;17026
288;17028
289;17030
288;17032
287;17034
286;17036
286;17038
285;17040
286;17042
287;17044
289;17046
291;17048
292;17050
291;17052
289;17054
289;17056
288;17058
288;17060
288;17062
290;17064
292;17067
294;17069
294;17071
292;17073
291;17075
290;17077
290;17079
290;17081
290;17083
292;17085
294;17087
296;17089
295;17091
294;17093
293;17095
292;17097
292;17099
292;17101
293;17103
295;17105
296;17107
297;17110
297;17112
296;17114
294;17116
294;17118
293;17120
294;17122
295;17124
297;17126
298;17128
299;17130
299;17132
297;17134
296;17136
296;17138
296;17140
296;17142
297;17144
299;17146
301;17148
301;17150
301;17152
299;17154
299;17156
297;17158
297;17160
297;17162
298;17164
300;17166
302;17168
303;17170
302;17172
300;17174
299;17176
298;17178
298;17180
298;17182
299;17184
301;17186
303;17188
303;17190
302;17192
301;17195
299;17197
298;17199
297;17201
298;17203
299;17205
301;17207
302;17209
302;17211
300;17213
299;17215
297;17217
297;17219
296;17221
297;17223
298;17225
300;17227
301;17229
300;17231
299;17233
297;17235
296;17238
295;17240
295;17242
295;17244
297;17246
299;17248
300;17250
299;17252
297;17254
296;17256
295;17258
294;17260
294;17262
295;17264
296;17266
298;17268
299;17270
297;17272
296;17274
294;17276
294;17278
293;17280
293;17282
293;17284
295;17286
297;17288
298;17290
298;17292
296;17294
294;17296
293;17298
293;17300
293;17302
293;17304
295;17306
297;17308
297;17310
297;17312
295;17314
293;17316
293;17318
293;17320
293;17323
293;17325
295;17327
297;17329
297;17331
296;17333
294;17335
293;17337
292;17339
292;17341
292;17343
294;17345
296;17347
297;17349
297;17351
296;17353
294;17355
293;17357
292;17359
292;17361
292;17363
294;17366
296;17368
297;17370
297;17372
295;17374
294;17376
293;17378
292;17380
293;17382
293;17384
295;17386
297;17388
298;17390
298;17392
297;17394
295;17396
295;17398
294;17400
295;17402
296;17404
299;17406
299;17408
302;17410
302;17412
301;17414
300;17416
300;17418
299;17420
300;17422
300;17424
303;17426
305;17428
306;17430
306;17432
304;17434
302;17436
301;17438
300;17440
300;17442
301;17444
303;17446
304;17448
304;17451
302;17453
300;17455
299;17457
298;17459
297;17461
296;17463
297;17465
299;17467
300;17469
300;17471
298;17473
297;17475
295;17477
294;17479
293;17481
293;17483
294;17485
295;17487
295;17489
295;17491
293;17494
289;17496
287;17498
284;17500
283;17502
282;17504
284;17506
287;17508
290;17510
293;17512
297;17514
302;17516
308;17518
315;17520
324;17522
333;17524
345;17526
358;17528
369;17530
378;17532
385;17534
388;17536
394;17538
396;17540
399;17542
398;17544
396;17546
393;17548
389;17550
383;17552
375;17554
368;17556
363;17558
356;17560
351;17562
347;17564
345;17566
342;17568
339;17570
335;17572
330;17574
326;17576
321;17579
317;17581
315;17583
313;17585
312;17587
310;17589
309;17591
305;17593
301;17595
298;17597
295;17599
293;17601
290;17603
290;17605
290;17607
290;17609
289;17611
286;17613
283;17615
281;17617
279;17619
277;17622
276;17624
277;17626
278;17628
278;17630
278;17632
275;17634
273;17636
271;17638
270;17640
270;17642
269;17644
270;17646
272;17648
273;17650
272;17652
271;17654
269;17656
268;17658
267;17660
267;17662
267;17664
268;17666
270;17668
272;17670
272;17672
271;17674
269;17676
268;17678
268;17680
268;17682
268;17684
270;17686
272;17688
274;17690
273;17692
273;17694
272;17696
271;17698
270;17700
271;17702
272;17704
274;17707
276;17709
277;17711
277;17713
276;17715
275;17717
275;17719
274;17721
275;17723
276;17725
278;17727
280;17729
281;17731
281;17733
280;17735
279;17737
278;17739
278;17741
278;17743
279;17745
282;17747
284;17750
284;17752
283;17754
282;17756
281;17758
280;17760
280;17762
281;17764
282;17766
285;17768
286;17770
286;17772
285;17774
284;17776
283;17778
283;17780
283;17782
284;17784
286;17786
288;17788
289;17790
289;17792
289;17794
288;17796
287;17798
286;17800
287;17802
287;17804
289;17806
291;17808
293;17810
293;17812
292;17814
291;17816
290;17818
289;17820
290;17822
290;17824
291;17826
294;17828
295;17830
294;17832
293;17835
292;17837
291;17839
290;17841
290;17843
291;17845
293;17847
295;17849
296;17851
296;17853
294;17855
293;17857
292;17859
291;17861
291;17863
293;17865
294;17867
296;17869
297;17871
297;17873
295;17875
293;17878
293;17880
292;17882
292;17884
294;17886
295;17888
297;17890
298;17892
297;17894
295;17896
294;17898
294;17900
293;17902
294;17904
296;17906
297;17908
299;17910
299;17912
298;17914
297;17916
295;17918
296;17920
295;17922
295;17924
296;17926
298;17928
300;17930
301;17932
300;17934
298;17936
298;17938
297;17940
296;17942
296;17944
298;17946
300;17948
301;17950
301;17952
300;17954
298;17956
297;17958
296;17960
297;17963
296;17965
298;17967
300;17969
302;17971
301;17973
300;17975
298;17977
297;17979
296;17981
296;17983
296;17985
298;17987
300;17989
301;17991
300;17993
298;17995
297;17997
296;17999
295;18001
295;18003
296;18006
298;18008
299;18010
299;18012
299;18014
297;18016
296;18018
295;18020
294;18022
294;18024
295;18026
297;18028
298;18030
299;18032
297;18034
295;18036
294;18038
294;18040
293;18042
293;18044
295;18046
295;18048
297;18050
298;18052
297;18054
295;18056
294;18058
293;18060
292;18062
292;18064
293;18066
295;18068
297;18070
297;18072
296;18074
295;18076
294;18078
293;18080
293;18082
293;18084
294;18086
297;18088
298;18091
299;18093
299;18095
297;18097
296;18099
296;18101
297;18103
297;18105
300;18107
302;18109
304;18111
304;18113
303;18115
302;18117
300;18119
300;18121
300;18123
300;18125
302;18127
304;18129
305;18131
304;18134
302;18136
301;18138
299;18140
298;18142
297;18144
298;18146
300;18148
301;18150
302;18152
300;18154
298;18156
296;18158
295;18160
294;18162
294;18164
295;18166
297;18168
298;18170
298;18172
297;18174
296;18176
294;18178
292;18180
291;18182
290;18184
289;18186
290;18188
290;18190
290;18192
287;18194
285;18196
284;18198
284;18200
285;18202
289;18204
295;18206
304;18208
312;18210
320;18212
328;18214
336;18216
345;18219
355;18221
365;18223
374;18225
384;18227
392;18229
398;18231
401;18233
399;18235
396;18237
391;18239
385;18241
379;18243
374;18245
370;18247
366;18249
362;18251
357;18253
351;18255
345;18257
340;18259
336;18262
332;18264
329;18266
327;18268
326;18270
323;18272
320;18274
315;18276
312;18278
308;18280
305;18282
303;18284
301;18286
301;18288
300;18290
299;18292
296;18294
293;18296
290;18298
287;18300
285;18302
285;18304
284;18306
284;18308
284;18310
285;18312
283;18314
281;18316
278;18318
276;18320
274;18322
274;18324
274;18326
275;18328
276;18330
276;18332
275;18334
273;18336
271;18338
270;18340
269;18342
269;18344
270;18347
272;18349
272;18351
273;18353
272;18355
270;18357
270;18359
268;18361
268;18363
269;18365
270;18367
272;18369
273;18371
273;18373
272;18375
271;18377
270;18379
270;18381
270;18383
270;18385
272;18387
275;18390
276;18392
276;18394
275;18396
273;18398
273;18400
272;18402
273;18404
273;18406
275;18408
278;18410
279;18412
279;18414
277;18416
276;18418
275;18420
275;18422
275;18424
276;18426
278;18428
280;18430
281;18432
280;18434
280;18436
278;18438
277;18440
277;18442
276;18444
277;18446
279;18448
281;18450
282;18452
281;18454
280;18456
279;18458
278;18460
278;18462
278;18464
279;18466
281;18468
283;18470
284;18472
284;18475
282;18477
282;18479
281;18481
281;18483
282;18485
283;18487
285;18489
287;18491
288;18493
287;18495
286;18497
285;18499
284;18501
284;18503
285;18505
287;18507
289;18509
290;18511
291;18513
290;18515
288;18518
288;18520
287;18522
287;18524
288;18526
289;18528
291;18530
292;18532
293;18534
291;18536
290;18538
289;18540
288;18542
289;18544
289;18546
291;18548
293;18550
294;18552
294;18554
292;18556
291;18558
291;18560
290;18562
290;18564
290;18566
292;18568
294;18570
296;18572
297;18574
295;18576
294;18578
293;18580
292;18582
292;18584
293;18586
295;18588
297;18590
299;18592
299;18594
298;18596
296;18598
296;18600
295;18603
296;18605
296;18607
299;18609
300;18611
301;18613
301;18615
300;18617
298;18619
297;18621
297;18623
297;18625
299;18627
301;18629
303;18631
303;18633
302;18635
301;18637
300;18639
299;18641
299;18643
299;18646
300;18648
302;18650
304;18652
304;18654
302;18656
301;18658
300;18660
298;18662
299;18664
299;18666
300;18668
302;18670
304;18672
303;18674
302;18676
300;18678
299;18680
298;18682
298;18684
299;18686
299;18688
301;18690
302;18692
303;18694
301;18696
300;18698
298;18700
297;18702
297;18704
297;18706
299;18708
301;18710
302;18712
301;18714
299;18716
298;18718
297;18720
297;18722
296;18724
297;18726
300;18728
301;18731
302;18733
303;18735
301;18737
300;18739
298;18741
298;18743
298;18745
299;18747
301;18749
304;18751
305;18753
305;18755
304;18757
303;18759
303;18761
303;18763
303;18765
305;18767
307;18769
308;18771
309;18774
309;18776
307;18778
305;18780
305;18782
304;18784
304;18786
305;18788
306;18790
307;18792
307;18794
305;18796
304;18798
302;18800
301;18802
300;18804
299;18806
301;18808
303;18810
303;18812
302;18814
301;18816
300;18818
298;18820
297;18822
296;18824
296;18826
297;18828
299;18830
300;18832
299;18834
297;18836
295;18838
293;18840
290;18842
289;18844
288;18846
288;18848
288;18850
289;18852
289;18854
288;18856
289;18859
292;18861
296;18863
303;18865
311;18867
321;18869
332;18871
342;18873
352;18875
361;18877
370;18879
379;18881
387;18883
394;18885
399;18887
403;18889
404;18891
401;18893
397;18895
390;18897
383;18899
377;18902
371;18904
366;18906
361;18908
359;18910
356;18912
351;18914
347;18916
341;18918
336;18920
332;18922
329;18924
325;18926
323;18928
323;18930
320;18932
317;18934
313;18936
309;18938
306;18940
303;18942
302;18944
299;18946
298;18948
298;18950
298;18952
296;18954
293;18956
290;18958
287;18960
285;18962
284;18964
283;18966
282;18968
283;18970
283;18972
283;18974
281;18976
278;18978
276;18980
274;18982
273;18984
273;18987
274;18989
275;18991
276;18993
276;18995
274;18997
272;18999
271;19001
270;19003
270;19005
270;19007
271;19009
273;19011
274;19013
273;19015
272;19017
271;19019
270;19021
269;19023
269;19025
270;19027
272;19030
273;19032
275;19034
274;19036
273;19038
271;19040
271;19042
270;19044
271;19046
272;19048
274;19050
276;19052
276;19054
276;19056
274;19058
273;19060
273;19062
272;19064
273;19066
274;19068
276;19070
277;19072
279;19074
278;19076
276;19078
275;19080
274;19082
274;19084
274;19086
275;19088
277;19090
279;19092
280;19094
279;19096
277;19098
276;19100
275;19102
275;19104
276;19106
277;19108
279;19110
280;19112
281;19115
280;19117
279;19119
278;19121
278;19123
278;19125
278;19127
281;19129
283;19131
285;19133
285;19135
284;19137
283;19139
282;19141
282;19143
282;19145
284;19147
285;19149
288;19151
290;19153
289;19155
288;19158
288;19160
287;19162
286;19164
287;19166
288;19168
290;19170
292;19172
293;19174
293;19176
291;19178
290;19180
289;19182
289;19184
289;19186
291;19188
293;19190
295;19192
295;19194
294;19196
293;19198
292;19200
291;19202
291;19204
291;19206
292;19208
294;19210
296;19212
298;19214
297;19216
296;19218
295;19220
294;19222
294;19224
294;19226
295;19228
297;19230
299;19232
300;19234
299;19236
298;19238
297;19240
296;19243
296;19245
296;19247
298;19249
300;19251
302;19253
302;19255
302;19257
300;19259
299;19261
299;19263
299;19265
299;19267
301;19269
303;19271
304;19273
304;19275
303;19277
301;19279
300;19281
300;19283
300;19286
300;19288
301;19290
304;19292
305;19294
304;19296
303;19298
302;19300
300;19302
300;19304
300;19306
301;19308
302;19310
304;19312
305;19314
304;19316
303;19318
301;19320
300;19322
299;19324
300;19326
300;19328
301;19330
303;19332
304;19334
304;19336
302;19338
301;19340
300;19342
299;19344
299;19346
300;19348
302;19350
304;19352
305;19354
304;19356
303;19358
302;19360
301;19362
301;19364
301;19366
303;19368
306;19371
307;19373
309;19375
308;19377
306;19379
306;19381
305;19383
305;19385
305;19387
307;19389
309;19391
310;19393
309;19395
308;19397
306;19399
305;19401
303;19403
303;19405
302;19407
303;19409
305;19411
305;19414
305;19416
303;19418
301;19420
299;19422
298;19424
298;19426
298;19428
299;19430
301;19432
302;19434
301;19436
299;19438
297;19440
296;19442
294;19444
294;19446
293;19448
294;19450
295;19452
295;19454
293;19456
291;19458
287;19460
285;19462
284;19464
284;19466
286;19468
291;19470
298;19472
305;19474
312;19476
318;19478
326;19480
334;19482
344;19484
354;19486
366;19488
378;19490
388;19492
397;19494
401;19496
403;19499
403;19501
400;19503
395;19505
390;19507
385;19509
381;19511
377;19513
373;19515
366;19517
360;19519
354;19521
349;19523
344;19525
340;19527
338;19529
336;19531
333;19533
330;19535
326;19537
321;19539
317;19542
314;19544
310;19546
308;19548
306;19550
306;19552
304;19554
302;19556
298;19558
295;19560
292;19562
289;19564
288;19566
286;19568
286;19570
287;19572
286;19574
284;19576
282;19578
279;19580
277;19582
276;19584
275;19586
274;19588
275;19590
276;19592
276;19594
276;19596
273;19598
271;19600
270;19602
268;19604
269;19606
268;19608
270;19610
271;19612
272;19614
272;19616
270;19618
268;19620
267;19622
267;19624
266;19627
267;19629
269;19631
271;19633
272;19635
271;19637
270;19639
268;19641
267;19643
267;19645
267;19647
268;19649
270;19651
272;19653
273;19655
272;19657
271;19659
270;19661
269;19663
269;19665
269;19667
270;19670
272;19672
274;19674
275;19676
273;19678
272;19680
271;19682
270;19684
270;19686
270;19688
272;19690
274;19692
275;19694
275;19696
274;19698
272;19700
271;19702
271;19704
270;19706
271;19708
273;19710
274;19712
275;19714
276;19716
275;19718
274;19720
273;19722
272;19724
272;19726
273;19728
275;19730
277;19732
278;19734
279;19736
279;19738
278;19740
277;19742
277;19744
277;19746
278;19748
280;19750
282;19752
284;19755
285;19757
284;19759
283;19761
282;19763
283;19765
283;19767
284;19769
286;19771
288;19773
289;19775
289;19777
288;19779
287;19781
287;19783
286;19785
287;19787
288;19789
290;19791
292;19793
293;19795
293;19798
291;19800
290;19802
290;19804
289;19806
290;19808
292;19810
294;19812
295;19814
296;19816
295;19818
294;19820
293;19822
292;19824
293;19826
293;19828
295;19830
297;19832
298;19834
299;19836
298;19838
297;19840
296;19842
296;19844
295;19846
295;19848
297;19850
299;19852
301;19854
302;19856
301;19858
300;19860
299;19862
298;19864
298;19866
298;19868
300;19870
302;19872
303;19874
303;19876
302;19878
300;19880
300;19883
299;19885
298;19887
299;19889
301;19891
303;19893
304;19895
304;19897
302;19899
300;19901
299;19903
299;19905
298;19907
299;19909
301;19911
303;19913
304;19915
303;19917
301;19919
300;19921
298;19923
298;19926
298;19928
299;19930
301;19932
303;19934
304;19936
303;19938
302;19940
300;19942
300;19944
300;19946
301;19948
303;19950
305;19952
307;19954
307;19956
307;19958
306;19960
305;19962
304;19964
304;19966
304;19968
305;19970
307;19972
309;19974
309;19976
308;19978
306;19980
304;19982
303;19984
302;19986
301;19988
302;19990
304;19992
304;19994
304;19996
302;19998
301;20000
299;20002
298;20004
297;20006
296;20008
298;20011
299;20013
300;20015
300;20017
298;20019
296;20021
295;20023
293;20025
292;20027
292;20029
293;20031
293;20033
293;20035
291;20037
287;20039
285;20041
283;20043
282;20045
283;20047
287;20049
292;20051
299;20054
307;20056
314;20058
320;20060
329;20062
338;20064
348;20066
358;20068
370;20070
382;20072
391;20074
398;20076
401;20078
401;20080
399;20082
395;20084
390;20086
385;20088
380;20090
376;20092
372;20094
369;20096
363;20098
357;20100
351;20102
345;20104
340;20106
336;20108
334;20110
332;20112
330;20114
327;20116
323;20118
318;20120
315;20122
311;20124
308;20126
305;20128
304;20130
303;20132
303;20134
301;20136
297;20139
294;20141
291;20143
288;20145
286;20147
285;20149
285;20151
285;20153
285;20155
284;20157
281;20159
278;20161
277;20163
275;20165
274;20167
273;20169
274;20171
275;20173
276;20175
275;20177
273;20179
272;20182
270;20184
269;20186
268;20188
268;20190
270;20192
272;20194
272;20196
272;20198
270;20200
269;20202
268;20204
267;20206
267;20208
268;20210
271;20212
272;20214
272;20216
272;20218
270;20220
269;20222
269;20224
269;20226
268;20228
269;20230
271;20232
274;20234
274;20236
274;20238
272;20240
272;20242
271;20244
270;20246
270;20248
271;20250
273;20252
275;20254
276;20256
275;20258
273;20260
272;20262
272;20264
271;20267
271;20269
272;20271
274;20273
276;20275
276;20277
275;20279
274;20281
273;20283
272;20285
271;20287
272;20289
273;20291
275;20293
277;20295
277;20297
275;20299
275;20301
274;20303
273;20305
274;20307
274;20310
276;20312
279;20314
280;20316
281;20318
280;20320
279;20322
279;20324
279;20326
279;20328
281;20330
282;20332
285;20334
287;20336
287;20338
285;20340
284;20342
284;20344
284;20346
285;20348
286;20350
287;20352
289;20354
291;20356
291;20358
290;20360
289;20362
289;20364
288;20366
288;20368
289;20370
291;20372
294;20374
295;20376
295;20378
293;20380
292;20382
292;20384
292;20386
291;20388
293;20390
295;20392
297;20395
298;20397
297;20399
296;20401
295;20403
295;20405
295;20407
295;20409
296;20411
299;20413
300;20415
301;20417
300;20419
299;20421
299;20423
298;20425
298;20427
298;20429
300;20431
302;20433
304;20435
304;20438
303;20440
302;20442
301;20444
300;20446
300;20448
301;20450
302;20452
304;20454
306;20456
305;20458
304;20460
302;20462
301;20464
301;20466
301;20468
301;20470
303;20472
305;20474
306;20476
305;20478
304;20480
302;20482
302;20484
301;20486
301;20488
302;20490
304;20492
305;20494
307;20496
307;20498
305;20500
304;20502
304;20504
304;20506
304;20508
305;20510
307;20512
309;20514
311;20516
311;20518
309;20520
308;20523
307;20525
306;20527
306;20529
307;20531
309;20533
310;20535
311;20537
309;20539
307;20541
305;20543
304;20545
303;20547
302;20549
303;20551
304;20553
305;20555
305;20557
303;20559
302;20561
300;20563
299;20566
298;20568
297;20570
299;20572
300;20574
301;20576
300;20578
299;20580
297;20582
296;20584
294;20586
293;20588
292;20590
292;20592
292;20594
291;20596
288;20598
284;20600
282;20602
281;20604
282;20606
282;20608
287;20610
293;20612
301;20614
311;20616
319;20618
328;20620
337;20622
347;20624
357;20626
368;20628
377;20630
385;20632
392;20634
396;20636
396;20638
392;20640
388;20642
382;20644
376;20646
370;20648
366;20651
362;20653
358;20655
354;20657
348;20659
343;20661
337;20663
332;20665
328;20667
325;20669
323;20671
322;20673
320;20675
318;20677
315;20679
311;20681
307;20683
304;20685
301;20687
299;20689
298;20691
298;20694
297;20696
296;20698
293;20700
290;20702
287;20704
285;20706
283;20708
282;20710
283;20712
283;20714
284;20716
283;20718
281;20720
278;20722
276;20724
275;20726
274;20728
274;20730
275;20732
277;20734
277;20736
277;20738
276;20740
274;20742
272;20744
271;20746
271;20748
271;20750
272;20752
274;20754
275;20756
275;20758
274;20760
272;20762
271;20764
271;20766
271;20768
271;20770
273;20772
275;20774
276;20776
276;20779
275;20781
274;20783
273;20785
272;20787
272;20789
273;20791
275;20793
277;20795
279;20797
278;20799
277;20801
276;20803
276;20805
275;20807
275;20809
277;20811
279;20813
280;20815
282;20817
281;20819
279;20822
278;20824
277;20826
277;20828
278;20830
279;20832
280;20834
282;20836
283;20838
282;20840
281;20842
279;20844
279;20846
279;20848
279;20850
281;20852
283;20854
284;20856
285;20858
284;20860
282;20862
282;20864
281;20866
282;20868
282;20870
283;20872
286;20874
288;20876
288;20878
288;20880
286;20882
286;20884
285;20886
285;20888
286;20890
287;20892
290;20894
291;20896
292;20898
291;20900
290;20902
288;20904
288;20907
288;20909
288;20911
290;20913
293;20915
294;20917
294;20919
293;20921
291;20923
290;20925
290;20927
290;20929
290;20931
293;20933
295;20935
296;20937
296;20939
294;20941
293;20943
293;20945
292;20947
292;20950
293;20952
295;20954
297;20956
299;20958
298;20960
296;20962
296;20964
294;20966
295;20968
295;20970
297;20972
299;20974
300;20976
301;20978
300;20980
299;20982
298;20984
298;20986
297;20988
297;20990
298;20992
300;20994
302;20996
303;20998
302;21000
301;21002
300;21004
299;21006
299;21008
299;21010
300;21012
302;21014
304;21016
305;21018
304;21020
303;21022
302;21024
301;21026
301;21028
302;21030
303;21032
305;21035
308;21037
308;21039
308;21041
306;21043
306;21045
305;21047
306;21049
307;21051
309;21053
310;21055
312;21057
312;21059
311;21061
309;21063
308;21065
307;21067
306;21069
306;21071
308;21073
310;21075
309;21078
309;21080
307;21082
305;21084
303;21086
302;21088
302;21090
302;21092
303;21094
304;21096
305;21098
303;21100
301;21102
300;21104
298;21106
297;21108
297;21110
297;21112
299;21114
301;21116
300;21118
300;21120
297;21122
295;21124
292;21126
289;21128
287;21130
285;21132
284;21134
285;21136
285;21138
285;21140
286;21142
289;21144
293;21146
300;21148
308;21150
318;21152
330;21154
341;21156
353;21158
364;21160
372;21163
379;21165
385;21167
389;21169
391;21171
392;21173
391;21175
388;21177
383;21179
377;21181
370;21183
363;21185
357;21187
352;21189
347;21191
344;21193
341;21195
338;21197
334;21199
329;21201
325;21203
321;21206
317;21208
314;21210
312;21212
311;21214
310;21216
309;21218
306;21220
303;21222
299;21224
296;21226
294;21228
292;21230
291;21232
291;21234
291;21236
290;21238
288;21240
286;21242
283;21244
281;21246
280;21248
279;21250
279;21252
279;21254
280;21256
281;21258
280;21260
277;21262
276;21264
274;21266
273;21268
273;21270
273;21272
274;21274
275;21276
276;21278
275;21280
273;21282
272;21284
270;21286
270;21288
270;21291
271;21293
273;21295
274;21297
275;21299
274;21301
273;21303
271;21305
271;21307
270;21309
270;21311
272;21313
274;21315
276;21317
276;21319
275;21321
274;21323
273;21325
273;21327
272;21329
273;21331
275;21334
277;21336
278;21338
279;21340
277;21342
276;21344
275;21346
275;21348
274;21350
275;21352
277;21354
279;21356
281;21358
280;21360
279;21362
277;21364
277;21366
276;21368
276;21370
277;21372
279;21374
280;21376
281;21378
281;21380
280;21382
279;21384
278;21386
277;21388
277;21390
278;21392
280;21394
282;21396
284;21398
284;21400
283;21402
282;21404
281;21406
281;21408
281;21410
282;21412
285;21414
287;21416
288;21419
287;21421
286;21423
285;21425
285;21427
285;21429
285;21431
286;21433
288;21435
290;21437
291;21439
290;21441
289;21443
287;21445
287;21447
286;21449
286;21451
288;21453
290;21455
292;21457
292;21459
291;21462
289;21464
288;21466
288;21468
288;21470
288;21472
290;21474
292;21476
293;21478
294;21480
292;21482
291;21484
291;21486
290;21488
290;21490
291;21492
293;21494
294;21496
296;21498
296;21500
294;21502
294;21504
293;21506
292;21508
292;21510
293;21512
294;21514
296;21516
298;21518
298;21520
298;21522
296;21524
295;21526
295;21528
295;21530
296;21532
298;21534
300;21536
301;21538
301;21540
300;21542
299;21544
299;21547
299;21549
300;21551
300;21553
303;21555
305;21557
306;21559
306;21561
305;21563
304;21565
303;21567
303;21569
303;21571
304;21573
305;21575
307;21577
307;21579
306;21581
304;21583
302;21585
301;21587
300;21590
299;21592
300;21594
302;21596
303;21598
303;21600
300;21602
299;21604
297;21606
295;21608
295;21610
295;21612
295;21614
297;21616
298;21618
297;21620
296;21622
294;21624
292;21626
290;21628
290;21630
290;21632
290;21634
291;21636
290;21638
288;21640
284;21642
280;21644
278;21646
276;21648
276;21650
277;21652
282;21654
288;21656
296;21658
303;21660
310;21662
318;21664
327;21666
337;21668
347;21670
358;21672
368;21675
377;21677
384;21679
387;21681
385;21683
382;21685
378;21687
373;21689
367;21691
363;21693
359;21695
355;21697
351;21699
345;21701
340;21703
334;21705
328;21707
324;21709
321;21711
318;21713
317;21715
316;21718
313;21720
310;21722
306;21724
302;21726
299;21728
296;21730
294;21732
293;21734
293;21736
293;21738
291;21740
289;21742
285;21744
282;21746
280;21748
279;21750
278;21752
278;21754
279;21756
279;21758
279;21760
277;21762
275;21764
273;21766
271;21768
270;21770
269;21772
270;21774
271;21776
273;21778
273;21780
271;21782
269;21784
268;21786
266;21788
266;21790
266;21792
268;21794
269;21796
271;21798
271;21800
269;21803
268;21805
267;21807
266;21809
267;21811
267;21813
269;21815
271;21817
272;21819
272;21821
271;21823
269;21825
269;21827
268;21829
268;21831
269;21833
271;21835
274;21837
275;21839
275;21841
273;21843
272;21846
271;21848
271;21850
271;21852
272;21854
275;21856
276;21858
277;21860
277;21862
275;21864
274;21866
274;21868
274;21870
273;21872
275;21874
277;21876
279;21878
279;21880
278;21882
277;21884
276;21886
275;21888
275;21890
275;21892
276;21894
279;21896
281;21898
281;21900
281;21902
280;21904
279;21906
278;21908
278;21910
279;21912
281;21914
283;21916
285;21918
286;21920
285;21922
284;21924
283;21926
283;21928
283;21931
283;21933
285;21935
287;21937
289;21939
290;21941
289;21943
288;21945
287;21947
286;21949
286;21951
287;21953
288;21955
291;21957
292;21959
292;21961
291;21963
289;21965
289;21967
288;21969
288;21971
289;21974
291;21976
293;21978
294;21980
294;21982
293;21984
291;21986
291;21988
290;21990
290;21992
292;21994
294;21996
296;21998
297;22000
297;22002
295;22004
294;22006
294;22008
293;22010
294;22012
295;22014
296;22016
298;22018
299;22020
299;22022
298;22024
297;22026
296;22028
296;22030
296;22032
297;22034
300;22036
302;22038
303;22040
303;22042
302;22044
301;22046
300;22048
301;22050
301;22052
303;22054
305;22056
308;22059
309;22061
309;22063
307;22065
306;22067
306;22069
306;22071
307;22073
308;22075
310;22077
312;22079
311;22081
310;22083
308;22085
307;22087
306;22089
305;22091
305;22093
306;22095
308;22097
309;22099
308;22102
305;22104
304;22106
303;22108
301;22110
300;22112
300;22114
302;22116
304;22118
304;22120
303;22122
301;22124
299;22126
299;22128
297;22130
297;22132
298;22134
299;22136
299;22138
298;22140
296;22142
293;22144
289;22146
286;22148
283;22150
282;22152
283;22154
285;22156
289;22158
294;22160
299;22162
304;22164
311;22166
318;22168
327;22170
337;22172
348;22174
360;22176
371;22178
379;22180
384;22182
386;22184
386;22187
385;22189
381;22191
377;22193
373;22195
370;22197
367;22199
361;22201
356;22203
349;22205
343;22207
338;22209
334;22211
330;22213
328;22215
327;22217
325;22219
322;22221
318;22223
314;22225
310;22227
307;22230
305;22232
303;22234
303;22236
303;22238
302;22240
300;22242
297;22244
293;22246
291;22248
289;22250
288;22252
287;22254
288;22256
288;22258
289;22260
287;22262
284;22264
282;22266
280;22268
279;22270
279;22272
278;22274
280;22276
280;22278
281;22280
281;22282
279;22284
277;22286
276;22288
275;22290
274;22292
275;22294
276;22296
279;22298
279;22300
279;22302
277;22304
276;22306
275;22308
274;22310
274;22312
275;22315
277;22317
279;22319
280;22321
280;22323
278;22325
277;22327
276;22329
276;22331
276;22333
278;22335
280;22337
281;22339
282;22341
282;22343
280;22345
279;22347
278;22349
278;22351
278;22353
281;22355
282;22358
284;22360
285;22362
283;22364
282;22366
281;22368
280;22370
280;22372
281;22374
283;22376
284;22378
286;22380
286;22382
284;22384
283;22386
282;22388
281;22390
281;22392
282;22394
284;22396
286;22398
286;22400
287;22402
286;22404
284;22406
283;22408
283;22410
283;22412
284;22414
286;22416
288;22418
290;22420
290;22422
288;22424
287;22426
287;22428
287;22430
287;22432
288;22434
290;22436
292;22438
294;22440
293;22443
292;22445
291;22447
291;22449
290;22451
290;22453
291;22455
294;22457
295;22459
296;22461
296;22463
294;22465
293;22467
292;22469
291;22471
292;22473
293;22475
295;22477
297;22479
298;22481
297;22483
295;22486
295;22488
294;22490
294;22492
294;22494
296;22496
298;22498
300;22500
300;22502
299;22504
297;22506
297;22508
296;22510
296;22512
297;22514
299;22516
301;22518
302;22520
302;22522
301;22524
300;22526
299;22528
299;22530
298;22532
299;22534
300;22536
303;22538
305;22540
305;22542
304;22544
303;22546
302;22548
301;22550
302;22552
302;22554
304;22556
307;22558
308;22560
309;22562
308;22564
308;22566
306;22568
306;22571
307;22573
308;22575
310;22577
312;22579
314;22581
313;22583
312;22585
311;22587
309;22589
308;22591
309;22593
309;22595
311;22597
312;22599
313;22601
311;22603
309;22605
307;22607
306;22609
305;22611
304;22614
305;22616
306;22618
307;22620
308;22622
306;22624
304;22626
302;22628
301;22630
300;22632
300;22634
301;22636
302;22638
304;22640
303;22642
301;22644
298;22646
296;22648
294;22650
292;22652
290;22654
290;22656
290;22658
290;22660
289;22662
288;22664
287;22666
288;22668
291;22670
295;22672
302;22674
311;22676
321;22678
331;22680
341;22682
351;22684
359;22686
368;22688
376;22690
384;22692
390;22694
395;22696
398;22699
398;22701
394;22703
387;22705
381;22707
374;22709
368;22711
363;22713
358;22715
354;22717
352;22719
348;22721
343;22723
338;22725
333;22727
328;22729
324;22731
322;22733
319;22735
318;22737
318;22739
316;22742
312;22744
307;22746
305;22748
301;22750
298;22752
296;22754
296;22756
295;22758
296;22760
294;22762
291;22764
288;22766
286;22768
284;22770
282;22772
281;22774
282;22776
282;22778
283;22780
282;22782
281;22784
278;22786
276;22788
275;22790
274;22792
273;22794
274;22796
276;22798
276;22800
277;22802
276;22804
273;22806
272;22808
271;22810
270;22812
270;22814
272;22816
273;22818
274;22820
274;22822
273;22824
272;22827
271;22829
270;22831
270;22833
270;22835
271;22837
274;22839
275;22841
275;22843
274;22845
272;22847
271;22849
270;22851
270;22853
271;22855
273;22857
275;22859
276;22861
275;22863
274;22865
272;22867
272;22870
271;22872
271;22874
271;22876
273;22878
275;22880
276;22882
275;22884
273;22886
272;22888
271;22890
270;22892
271;22894
272;22896
273;22898
275;22900
276;22902
274;22904
273;22906
272;22908
271;22910
271;22912
271;22914
273;22916
275;22918
277;22920
279;22922
278;22924
277;22926
276;22928
276;22930
277;22932
277;22934
279;22936
282;22938
284;22940
285;22942
285;22944
284;22946
283;22948
283;22950
283;22952
284;22955
286;22957
288;22959
290;22961
291;22963
290;22965
290;22967
288;22969
289;22971
288;22973
289;22975
291;22977
294;22979
295;22981
296;22983
295;22985
293;22987
293;22989
292;22991
293;22993
293;22995
296;22998
298;23000
299;23002
299;23004
299;23006
297;23008
296;23010
296;23012
296;23014
297;23016
300;23018
302;23020
303;23022
302;23024
301;23026
300;23028
299;23030
299;23032
299;23034
301;23036
303;23038
304;23040
305;23042
305;23044
304;23046
303;23048
302;23050
302;23052
302;23054
303;23056
305;23058
307;23060
308;23062
307;23064
306;23066
305;23068
304;23070
304;23072
304;23074
305;23076
307;23078
309;23080
309;23083
308;23085
306;23087
305;23089
305;23091
304;23093
304;23095
306;23097
308;23099
309;23101
310;23103
308;23105
307;23107
306;23109
306;23111
306;23113
306;23115
308;23117
310;23119
312;23121
313;23123
311;23126
310;23128
310;23130
309;23132
310;23134
311;23136
313;23138
315;23140
316;23142
316;23144
314;23146
312;23148
311;23150
310;23152
309;23154
310;23156
311;23158
313;23160
313;23162
312;23164
310;23166
309;23168
307;23170
305;23172
305;23174
305;23176
306;23178
308;23180
308;23182
307;23184
305;23186
304;23188
302;23190
301;23192
301;23194
300;23196
302;23198
303;23200
303;23202
302;23204
299;23206
297;23208
293;23211
291;23213
289;23215
289;23217
290;23219
293;23221
294;23223
296;23225
298;23227
303;23229
308;23231
315;23233
324;23235
335;23237
346;23239
358;23241
368;23243
377;23245
386;23247
393;23249
398;23251
401;23254
403;23256
404;23258
402;23260
398;23262
393;23264
386;23266
378;23268
372;23270
366;23272
361;23274
356;23276
353;23278
350;23280
347;23282
343;23284
338;23286
333;23288
328;23290
325;23292
321;23294
320;23296
319;23298
317;23300
316;23302
313;23304
309;23306
305;23308
301;23310
299;23312
296;23314
294;23316
294;23318
294;23320
293;23322
291;23324
288;23326
285;23328
283;23330
280;23332
279;23334
279;23336
279;23339
281;23341
280;23343
278;23345
276;23347
273;23349
272;23351
270;23353
270;23355
271;23357
272;23359
273;23361
273;23363
272;23365
270;23367
268;23369
267;23371
266;23373
267;23375
268;23377
269;23379
271;23382
271;23384
270;23386
268;23388
267;23390
266;23392
265;23394
266;23396
268;23398
270;23400
271;23402
271;23404
270;23406
269;23408
268;23410
267;23412
267;23414
267;23416
269;23418
271;23420
273;23422
272;23424
271;23426
270;23428
268;23430
268;23432
267;23434
267;23436
269;23438
271;23440
273;23442
273;23444
271;23446
270;23448
268;23450
268;23452
267;23454
268;23456
270;23458
272;23460
273;23462
273;23464
271;23467
270;23469
269;23471
269;23473
270;23475
271;23477
273;23479
275;23481
276;23483
277;23485
276;23487
275;23489
275;23491
275;23493
276;23495
277;23497
280;23499
283;23501
284;23503
283;23505
283;23507
282;23510
281;23512
282;23514
283;23516
285;23518
288;23520
290;23522
290;23524
290;23526
289;23528
289;23530
288;23532
288;23534
290;23536
291;23538
294;23540
296;23542
296;23544
295;23546
294;23548
293;23550
292;23552
293;23554
293;23556
294;23558
297;23560
299;23562
300;23564
299;23566
297;23568
296;23570
296;23572
296;23574
297;23576
298;23578
301;23580
303;23582
303;23584
302;23586
300;23588
299;23590
299;23592
299;23595
300;23597
302;23599
304;23601
305;23603
305;23605
304;23607
303;23609
302;23611
301;23613
301;23615
302;23617
304;23619
306;23621
307;23623
307;23625
305;23627
304;23629
303;23631
303;23633
303;23635
303;23638
306;23640
307;23642
308;23644
307;23646
306;23648
304;23650
303;23652
303;23654
302;23656
304;23658
306;23660
307;23662
307;23664
306;23666
305;23668
303;23670
302;23672
302;23674
302;23676
304;23678
304;23680
306;23682
306;23684
305;23686
304;23688
302;23690
301;23692
300;23694
300;23696
301;23698
303;23700
304;23702
305;23704
304;23706
302;23708
300;23710
299;23712
299;23714
299;23716
300;23718
302;23720
303;23723
303;23725
301;23727
299;23729
299;23731
297;23733
297;23735
298;23737
299;23739
301;23741
302;23743
301;23745
300;23747
298;23749
297;23751
296;23753
296;23755
297;23757
299;23759
300;23761
301;23763
301;23766
298;23768
297;23770
296;23772
295;23774
295;23776
297;23778
298;23780
300;23782
300;23784
300;23786
298;23788
296;23790
296;23792
295;23794
295;23796
297;23798
300;23800
301;23802
301;23804
300;23806
300;23808
299;23810
298;23812
298;23814
298;23816
299;23818
302;23820
304;23822
305;23824
305;23826
304;23828
303;23830
302;23832
303;23834
303;23836
304;23838
307;23840
309;23842
309;23844
308;23846
307;23848
306;23851
304;23853
304;23855
304;23857
305;23859
307;23861
308;23863
307;23865
305;23867
303;23869
301;23871
300;23873
300;23875
299;23877
301;23879
303;23881
304;23883
303;23885
301;23887
299;23889
298;23891
296;23894
296;23896
296;23898
298;23900
299;23902
299;23904
297;23906
294;23908
291;23910
289;23912
287;23914
285;23916
285;23918
287;23920
289;23922
292;23924
295;23926
298;23928
303;23930
309;23932
317;23934
321;23936
331;23938
343;23940
355;23942
367;23944
376;23946
384;23948
392;23950
397;23952
401;23954
403;23956
403;23958
402;23960
398;23962
393;23964
386;23966
379;23968
373;23970
367;23972
362;23974
357;23976
353;23979
351;23981
348;23983
344;23985
340;23987
335;23989
330;23991
326;23993
322;23995
319;23997
318;23999
317;24001
316;24003
313;24005
309;24007
304;24009
301;24011
298;24013
296;24015
294;24017
294;24019
294;24022
293;24024
291;24026
288;24028
285;24030
282;24032
281;24034
280;24036
279;24038
280;24040
280;24042
280;24044
278;24046
276;24048
274;24050
273;24052
271;24054
270;24056
271;24058
272;24060
274;24062
274;24064
273;24066
271;24068
269;24070
268;24072
267;24074
267;24076
267;24078
269;24080
271;24082
272;24084
271;24086
269;24088
268;24090
267;24092
266;24094
267;24096
266;24098
269;24100
270;24102
272;24104
271;24107
269;24109
268;24111
267;24113
267;24115
267;24117
268;24119
270;24121
272;24123
272;24125
271;24127
270;24129
268;24131
267;24133
267;24135
267;24137
269;24139
271;24141
272;24143
272;24145
270;24147
269;24150
268;24152
267;24154
266;24156
267;24158
269;24160
271;24162
272;24164
271;24166
270;24168
268;24170
267;24172
267;24174
267;24176
267;24178
270;24180
272;24182
274;24184
273;24186
272;24188
271;24190
270;24192
270;24194
271;24196
272;24198
274;24200
277;24202
279;24204
279;24206
279;24208
278;24210
278;24212
278;24214
278;24216
280;24218
282;24220
285;24222
287;24224
287;24226
286;24228
285;24230
285;24232
285;24235
286;24237
287;24239
290;24241
292;24243
293;24245
293;24247
292;24249
291;24251
291;24253
290;24255
291;24257
293;24259
295;24261
297;24263
298;24265
297;24267
296;24269
295;24271
294;24273
294;24275
295;24278
296;24280
299;24282
301;24284
301;24286
300;24288
299;24290
298;24292
297;24294
298;24296
298;24298
300;24300
302;24302
304;24304
303;24306
303;24308
301;24310
300;24312
300;24314
300;24316
300;24318
301;24320
304;24322
305;24324
305;24326
304;24328
303;24330
302;24332
301;24334
301;24336
302;24338
304;24340
306;24342
307;24344
307;24346
305;24348
304;24350
303;24352
303;24354
302;24356
303;24358
305;24360
307;24363
308;24365
307;24367
305;24369
304;24371
303;24373
302;24375
303;24377
303;24379
305;24381
307;24383
307;24385
306;24387
305;24389
304;24391
302;24393
302;24395
301;24397
302;24399
304;24401
306;24403
306;24406
304;24408
303;24410
301;24412
300;24414
300;24416
300;24418
301;24420
303;24422
304;24424
304;24426
303;24428
301;24430
300;24432
299;24434
298;24436
299;24438
300;24440
302;24442
303;24444
303;24446
303;24448
300;24450
299;24452
298;24454
298;24456
297;24458
299;24460
301;24462
302;24464
302;24466
300;24468
299;24470
298;24472
297;24474
296;24476
296;24478
298;24480
300;24482
301;24484
301;24486
299;24488
298;24491
296;24493
296;24495
295;24497
296;24499
297;24501
300;24503
301;24505
300;24507
298;24509
297;24511
296;24513
295;24515
295;24517
296;24519
298;24521
299;24523
300;24525
299;24527
297;24529
296;24531
295;24534
294;24536
295;24538
295;24540
297;24542
299;24544
299;24546
298;24548
297;24550
295;24552
295;24554
294;24556
295;24558
296;24560
298;24562
300;24564
300;24566
299;24568
298;24570
297;24572
297;24574
296;24576
297;24578
299;24580
301;24582
303;24584
304;24586
304;24588
303;24590
302;24592
302;24594
302;24596
302;24598
304;24600
306;24602
308;24604
308;24606
307;24608
305;24610
304;24612
303;24614
303;24616
302;24619
303;24621
305;24623
306;24625
305;24627
303;24629
301;24631
300;24633
298;24635
298;24637
298;24639
299;24641
301;24643
302;24645
301;24647
299;24649
297;24651
296;24653
294;24655
294;24657
294;24659
296;24662
297;24664
297;24666
294;24668
291;24670
288;24672
285;24674
284;24676
283;24678
284;24680
287;24682
292;24684
296;24686
300;24688
305;24690
312;24692
319;24694
328;24696
338;24698
350;24700
362;24702
369;24704
379;24706
388;24708
393;24710
398;24712
401;24714
401;24716
399;24718
396;24720
393;24722
388;24724
383;24726
376;24728
369;24730
363;24732
358;24734
352;24736
348;24738
345;24740
343;24742
340;24744
337;24747
332;24749
327;24751
322;24753
319;24755
315;24757
312;24759
311;24761
310;24763
309;24765
306;24767
302;24769
298;24771
295;24773
292;24775
290;24777
288;24779
289;24781
289;24783
288;24785
286;24787
283;24790
280;24792
277;24794
276;24796
275;24798
275;24800
276;24802
276;24804
276;24806
274;24808
272;24810
270;24812
268;24814
268;24816
267;24818
268;24820
269;24822
271;24824
270;24826
269;24828
267;24830
267;24832
265;24834
264;24836
264;24838
265;24840
266;24842
269;24844
270;24846
268;24848
267;24850
265;24852
265;24854
264;24856
265;24858
266;24860
268;24862
270;24864
270;24866
269;24868
267;24870
267;24872
266;24875
266;24877
266;24879
267;24881
270;24883
271;24885
271;24887
270;24889
269;24891
267;24893
266;24895
266;24897
267;24899
269;24901
270;24903
272;24905
271;24907
270;24909
268;24911
267;24913
266;24915
266;24918
267;24920
269;24922
270;24924
272;24926
271;24928
269;24930
268;24932
267;24934
266;24936
266;24938
267;24940
270;24942
272;24944
272;24946
272;24948
271;24950
270;24952
270;24954
270;24956
271;24958
272;24960
274;24962
277;24964
279;24966
279;24968
279;24970
278;24972
277;24974
278;24976
279;24978
280;24980
282;24982
285;24984
287;24986
287;24988
286;24990
285;24992
285;24994
285;24996
286;24998
287;25000
290;25003
292;25005
293;25007
292;25009
292;25011
291;25013
290;25015
290;25017
291;25019
293;25021
295;25023
297;25025
297;25027
297;25029
295;25031
294;25033
294;25035
294;25037
294;25039
297;25041
299;25043
300;25046
300;25048
299;25050
298;25052
297;25054
297;25056
297;25058
297;25060
300;25062
302;25064
303;25066
303;25068
301;25070
300;25072
300;25074
299;25076
299;25078
300;25080
303;25082
304;25084
305;25086
305;25088
304;25090
302;25092
301;25094
301;25096
300;25098
301;25100
303;25102
305;25104
306;25106
305;25108
304;25110
302;25112
301;25114
300;25116
301;25118
301;25120
303;25122
305;25124
306;25126
305;25128
303;25131
301;25133
300;25135
300;25137
300;25139
300;25141
303;25143
304;25145
304;25147
303;25149
301;25151
300;25153
299;25155
298;25157
298;25159
299;25161
301;25163
302;25165
302;25167
301;25169
299;25171
298;25174
297;25176
296;25178
296;25180
298;25182
300;25184
301;25186
301;25188
299;25190
298;25192
297;25194
295;25196
295;25198
295;25200
297;25202
299;25204
300;25206
299;25208
298;25210
296;25212
295;25214
294;25216
294;25218
294;25220
296;25222
297;25224
299;25226
299;25228
297;25230
295;25232
294;25234
293;25236
293;25238
293;25240
296;25242
297;25244
298;25246
298;25248
296;25250
294;25252
293;25254
293;25256
292;25259
293;25261
295;25263
297;25265
298;25267
297;25269
295;25271
294;25273
293;25275
292;25277
292;25279
294;25281
295;25283
297;25285
298;25287
296;25289
295;25291
294;25293
293;25295
292;25297
292;25299
294;25302
296;25304
297;25306
297;25308
296;25310
294;25312
293;25314
292;25316
292;25318
292;25320
294;25322
296;25324
298;25326
298;25328
296;25330
295;25332
294;25334
294;25336
293;25338
294;25340
296;25342
297;25344
299;25346
300;25348
299;25350
298;25352
298;25354
297;25356
298;25358
299;25360
301;25362
303;25364
305;25366
306;25368
304;25370
303;25372
302;25374
301;25376
301;25378
302;25380
304;25382
306;25384
307;25387
306;25389
304;25391
302;25393
301;25395
299;25397
299;25399
299;25401
301;25403
302;25405
302;25407
301;25409
299;25411
297;25413
296;25415
295;25417
294;25419
295;25421
297;25423
299;25425
298;25427
297;25430
294;25432
292;25434
291;25436
289;25438
288;25440
288;25442
289;25444
288;25446
287;25448
286;25450
285;25452
285;25454
288;25456
293;25458
299;25460
308;25462
318;25464
328;25466
337;25468
345;25470
350;25472
360;25474
370;25476
378;25478
386;25480
394;25482
400;25484
402;25486
401;25488
396;25490
